t,lead_I
1.9,-60423.399999999994
3.9,-66398.65
5.9,-72410.45
7.9,-78457.7
9.9,-84536.65
11.9,-90649.5
13.9,-96760.8
15.9,-102824.6
17.9,-108843.65000000001
19.9,-114840.55
21.9,-120819.75
23.9,-120842.25
25.9,-120827.2
27.9,-120836.15
29.9,-120833.35
31.9,-120803.10000000002
33.9,-120791.25
35.9,-120804.0
37.9,-120809.1
39.9,-120809.8
41.9,-120820.75000000001
43.9,-120828.40000000001
45.9,-120825.35
47.9,-120817.95
49.9,-120794.9
51.9,-120749.35000000002
53.9,-120709.90000000001
55.9,-120698.54999999999
57.9,-120696.75000000001
59.9,-120685.45000000003
61.9,-120672.95
63.88,-120666.1
65.85,-120657.6
67.83,-120643.45000000001
69.8,-120622.20000000001
71.8,-120590.54999999999
73.8,-120557.34999999999
75.8,-120536.00000000001
77.8,-120522.50000000001
79.8,-120506.75000000003
81.8,-120492.50000000003
83.8,-120484.90000000002
85.8,-120479.10000000002
87.8,-120472.40000000001
89.8,-120465.35
91.8,-120453.05
93.8,-120434.90000000001
95.8,-120422.05000000002
97.8,-120421.90000000001
99.8,-120427.5
101.8,-120428.1
103.8,-120421.30000000002
105.8,-120411.70000000001
107.8,-120401.15000000001
109.8,-120385.70000000003
111.8,-120364.35000000003
113.8,-120341.30000000002
115.8,-120318.80000000002
117.8,-120301.34999999999
119.8,-120299.2
121.8,-120308.1
123.8,-120306.6
125.8,-120290.5
127.8,-120279.35
129.8,-120278.25000000001
131.8,-120272.35
133.8,-120257.6
135.8,-120241.45000000001
137.8,-120226.1
139.8,-120218.59999999999
141.8,-120229.29999999999
143.78,-120245.85
145.75,-120245.15000000001
147.73,-120230.70000000001
149.7,-120219.85
151.7,-120210.1
153.7,-120195.30000000002
155.7,-120186.50000000001
157.7,-120187.35000000002
159.7,-120185.65000000001
161.7,-120183.35
163.7,-120190.15000000001
165.7,-120192.6
167.7,-120174.35
169.7,-120150.20000000003
171.7,-120141.10000000002
173.7,-120143.00000000001
175.7,-120144.65000000002
177.7,-120147.40000000002
179.7,-120155.85
181.7,-120170.85
183.7,-120189.84999999999
185.7,-120204.55
187.7,-120209.1
189.7,-120209.4
191.7,-120213.9
193.7,-120223.90000000001
195.7,-120239.50000000001
197.7,-120262.45000000001
199.7,-120290.6
201.7,-120320.7
203.7,-120353.65
205.7,-120389.40000000001
207.7,-120421.8
209.7,-120443.90000000001
211.7,-120456.45
213.7,-120468.3
215.7,-120486.75
217.7,-120508.00000000001
219.7,-120521.95000000001
221.7,-120527.05000000002
223.68,-120533.85000000002
225.65,-120550.95000000003
227.63,-120573.15000000002
229.6,-120588.3
231.6,-120593.05
233.6,-120597.34999999999
235.6,-120610.84999999999
237.6,-120628.7
239.6,-120637.7
241.6,-120634.75
243.6,-120631.1
245.6,-120635.8
247.6,-120643.65
249.6,-120644.84999999999
251.6,-120639.5
253.6,-120635.85
255.6,-120639.24999999999
257.6,-120649.2
259.6,-120660.99999999999
261.6,-120668.0
263.6,-120666.59999999999
265.6,-120660.65
267.6,-120655.05
269.6,-120647.95
271.6,-120633.95000000001
273.6,-120612.45000000001
275.6,-120589.8
277.6,-120575.05
279.6,-120571.95
281.6,-120573.55
283.6,-120568.70000000001
285.6,-120555.8
287.6,-120545.0
289.6,-120543.25
291.6,-120543.0
293.6,-120532.69999999998
295.6,-120516.29999999999
297.6,-120510.55
299.6,-120521.04999999999
301.5,-120534.0
303.5,-120537.29999999999
305.5,-120536.15000000001
307.5,-120541.85
309.5,-120554.8
311.5,-120566.15
313.5,-120570.55
315.5,-120573.55
317.5,-120585.0
319.5,-120604.85000000002
321.5,-120621.50000000001
323.5,-120626.85
325.5,-120625.25
327.5,-120624.40000000001
329.5,-120626.8
331.5,-120632.30000000002
333.5,-120639.60000000002
335.5,-120645.2
337.5,-120648.6
339.5,-120656.45
341.5,-120673.09999999999
343.5,-120692.20000000001
345.5,-120703.30000000002
347.5,-120703.70000000001
349.5,-120703.20000000001
351.5,-120714.8
353.5,-120737.3
355.5,-120752.95
357.5,-120752.15
359.5,-120750.95
361.5,-120767.9
363.5,-120795.9
365.5,-120813.4
367.5,-120812.85
369.5,-120805.55
371.5,-120805.10000000002
373.48,-120812.5
375.45,-120816.15
377.43,-120808.0
379.4,-120796.0
381.4,-120793.0
383.4,-120797.15
385.4,-120795.75
387.4,-120784.85
389.4,-120770.90000000001
391.4,-120758.25000000001
393.4,-120746.85
395.4,-120737.95
397.4,-120731.55
399.4,-120723.05
401.4,-120711.2
403.4,-120702.59999999999
405.4,-120701.59999999999
407.4,-120702.8
409.4,-120699.7
411.4,-120694.90000000001
413.4,-120696.55
415.4,-120706.85
417.4,-120718.35
419.4,-120722.85000000002
421.4,-120722.00000000001
423.4,-120726.15000000001
425.4,-120740.90000000001
427.4,-120757.70000000001
429.4,-120763.70000000001
431.4,-120759.95000000003
433.4,-120760.70000000001
435.4,-120772.30000000002
437.4,-120784.40000000001
439.4,-120787.5
441.4,-120786.40000000001
443.4,-120789.8
445.4,-120797.65000000002
447.4,-120804.00000000003
449.4,-120804.70000000003
451.4,-120800.70000000003
453.38,-120798.15000000002
455.35,-120801.50000000001
457.33,-120805.05
459.3,-120799.0
461.3,-120782.5
463.3,-120763.25000000001
465.3,-120747.2
467.3,-120734.34999999999
469.3,-120721.7
471.3,-120706.59999999999
473.3,-120690.25
475.3,-120678.29999999999
477.3,-120675.85
479.3,-120681.95000000001
481.3,-120690.1
483.3,-120695.40000000001
485.3,-120701.05000000002
487.3,-120712.9
489.3,-120726.5
491.3,-120728.44999999998
493.3,-120715.59999999999
495.3,-120702.59999999999
497.3,-120703.59999999999
499.3,-120714.50000000001
501.3,-120722.25000000003
503.3,-120724.95000000003
505.3,-120733.90000000002
507.3,-120756.75000000001
509.3,-120785.65000000002
511.3,-120806.70000000001
513.3,-120817.20000000001
515.3,-120826.25000000001
517.3,-120839.45000000001
519.3,-120851.35
521.3,-120854.15000000001
523.3,-120847.65
525.3,-120838.20000000001
527.3,-120831.70000000001
529.3,-120829.15
531.3,-120829.4
533.28,-120832.8
535.25,-120839.35
537.23,-120847.95000000001
539.2,-120862.05000000002
541.2,-120886.59999999999
543.2,-120914.80000000002
545.2,-120931.15000000001
547.2,-120933.5
549.2,-120936.15
551.2,-120945.7
553.2,-120949.8
555.2,-120933.65000000001
557.2,-120895.75
559.2,-120843.25
561.2,-120778.70000000001
563.2,-120693.15000000001
565.2,-120576.05
567.2,-120434.2
569.2,-120290.1
571.2,-120154.45000000001
573.2,-120017.60000000002
575.2,-119878.3
577.2,-119759.55
579.2,-119682.30000000002
581.2,-119642.35
583.2,-119625.5
585.2,-119625.1
587.2,-119636.7
589.2,-119653.25
591.2,-119671.55
593.2,-119691.79999999999
595.2,-119714.35
597.2,-119744.0
599.2,-119791.0
601.2,-119862.5
603.2,-119958.09999999999
605.2,-120070.95
607.2,-120191.90000000001
609.2,-120318.10000000002
611.2,-120454.3
613.18,-120598.3
615.15,-120734.29999999999
617.13,-120844.0
619.1,-120914.15000000001
621.1,-120940.65000000001
623.1,-120936.05000000002
625.1,-120919.70000000001
627.1,-120895.1
629.1,-120857.05
631.1,-120815.95
633.1,-120789.95
635.1,-120780.05
637.1,-120774.7
639.1,-120767.4
641.1,-120758.45
643.1,-120752.05
645.1,-120755.65
647.1,-120768.45000000001
649.1,-120775.25000000001
651.1,-120765.35000000002
653.1,-120749.85000000002
655.1,-120743.45000000001
657.1,-120741.45000000001
659.1,-120733.40000000001
661.1,-120724.25000000001
663.1,-120721.75000000001
665.1,-120722.00000000001
667.1,-120722.75
669.1,-120728.95
671.1,-120736.24999999999
673.1,-120733.3
675.1,-120723.65000000001
677.1,-120719.65000000002
679.1,-120720.1
681.1,-120714.20000000001
683.1,-120701.05
685.1,-120689.95
687.1,-120687.0
689.1,-120689.34999999999
691.1,-120689.95
693.08,-120684.49999999999
695.05,-120676.3
697.03,-120674.45000000001
699.0,-120683.15000000002
701.0,-120693.95000000003
703.0,-120694.70000000003
705.0,-120684.60000000003
707.0,-120672.20000000003
709.0,-120661.15000000002
711.0,-120648.70000000001
713.0,-120634.55
715.0,-120620.90000000001
717.0,-120608.65000000001
719.0,-120599.35
721.0,-120595.50000000001
723.0,-120595.35000000002
725.0,-120592.35000000002
727.0,-120582.05000000002
729.0,-120568.3
731.0,-120559.20000000001
733.0,-120554.40000000001
735.0,-120543.65000000001
737.0,-120522.20000000001
739.0,-120499.50000000001
741.0,-120485.1
743.0,-120474.85
745.0,-120457.8
747.0,-120432.50000000001
749.0,-120410.1
751.0,-120400.15
753.0,-120396.49999999999
755.0,-120384.24999999999
757.0,-120360.84999999999
759.0,-120339.1
761.0,-120328.1
763.0,-120321.8
765.0,-120309.65000000001
767.0,-120289.65000000001
769.0,-120268.60000000002
771.0,-120253.85000000002
772.98,-120245.70000000004
774.95,-120236.40000000002
776.93,-120219.85000000002
778.9,-120200.75000000001
780.9,-120188.40000000001
782.9,-120184.15000000002
784.9,-120182.45000000003
786.9,-120178.60000000003
788.9,-120170.40000000002
790.9,-120159.35
792.9,-120153.75000000001
794.9,-120158.65
796.9,-120163.0
798.9,-120153.20000000001
800.9,-120135.45000000001
802.9,-120127.70000000001
804.9,-120134.00000000001
806.9,-120142.59999999999
808.9,-120143.2
810.9,-120136.65
812.9,-120132.49999999999
814.9,-120138.3
816.9,-120147.55
818.9,-120146.40000000001
820.9,-120135.10000000002
822.9,-120128.9
824.9,-120134.55
826.9,-120141.95000000001
828.9,-120141.35
830.9,-120135.55
832.9,-120133.2
834.9,-120139.05
836.9,-120151.0
838.9,-120161.54999999999
840.9,-120164.75
842.9,-120164.55000000002
844.9,-120171.15000000002
846.9,-120186.25000000001
848.9,-120200.55000000002
850.9,-120209.10000000002
852.88,-120219.45000000001
854.85,-120239.6
856.83,-120268.50000000003
858.8,-120300.65000000002
860.8,-120331.00000000001
862.8,-120356.1
864.8,-120378.29999999999
866.8,-120404.8
868.8,-120435.09999999999
870.8,-120458.6
872.8,-120470.45000000001
874.8,-120480.40000000002
876.8,-120500.35
878.8,-120530.2
880.8,-120559.35
882.8,-120578.35
884.8,-120589.55
886.8,-120605.15000000001
888.8,-120630.59999999999
890.8,-120654.59999999999
892.8,-120663.44999999998
894.8,-120661.30000000002
896.8,-120663.80000000002
898.8,-120675.3
900.8,-120684.90000000001
902.8,-120684.95000000001
904.8,-120682.45
906.8,-120688.25
908.8,-120702.6
910.8,-120716.25000000001
912.8,-120723.35
914.8,-120727.4
916.8,-120734.05
918.8,-120742.99999999999
920.8,-120750.0
922.8,-120752.20000000001
924.8,-120747.45000000001
926.8,-120736.15000000002
928.8,-120725.65000000001
930.7,-120723.6
932.7,-120725.59999999999
934.7,-120720.29999999999
936.7,-120707.7
938.7,-120699.55
940.7,-120700.25000000001
942.7,-120699.65000000001
944.7,-120687.65
946.7,-120667.79999999999
948.7,-120654.4
950.7,-120656.2
952.7,-120664.2
954.7,-120661.90000000001
956.7,-120648.60000000002
958.7,-120641.25000000001
960.7,-120648.55
962.7,-120658.55
964.7,-120660.65000000001
966.7,-120662.35
968.7,-120673.30000000002
970.7,-120688.95
972.7,-120701.05
974.7,-120710.3
976.7,-120719.65000000001
978.7,-120728.60000000002
980.7,-120740.35000000002
982.7,-120759.50000000001
984.7,-120780.75
986.7,-120794.05
988.7,-120799.40000000001
990.7,-120804.90000000001
992.7,-120815.45000000001
994.7,-120830.55
996.7,-120844.95
998.7,-120851.2
1000.7,-120850.9
1002.7,-120856.9
1004.7,-120872.25000000001
1006.7,-120881.50000000001
1008.7,-120875.5
1010.6,-120868.2
1012.6,-120875.7
1014.6,-120893.79999999999
1016.6,-120906.70000000001
1018.6,-120908.05
1020.6,-120906.25
1022.6,-120913.4
1024.6,-120929.3
1026.6,-120940.1
1028.6,-120937.35000000002
1030.6,-120931.40000000001
1032.6,-120935.70000000001
1034.6,-120946.85000000002
1036.6,-120952.85
1038.6,-120951.8
1040.6,-120951.40000000001
1042.6,-120955.99999999999
1044.6,-120963.3
1046.6,-120969.09999999999
1048.6,-120971.50000000001
1050.6,-120970.20000000001
1052.6,-120964.35
1054.6,-120953.75000000001
1056.6,-120942.35
1058.6,-120933.20000000001
1060.6,-120921.80000000002
1062.6,-120904.35
1064.6,-120890.65
1066.6,-120893.45
1068.6,-120906.45000000001
1070.6,-120910.20000000001
1072.6,-120900.90000000001
1074.6,-120895.2
1076.6,-120903.7
1078.6,-120915.45
1080.6,-120914.75
1082.6,-120903.15000000001
1084.6,-120895.8
1086.6,-120900.9
1088.6,-120909.09999999999
1090.5,-120906.44999999998
1092.5,-120894.44999999998
1094.5,-120889.29999999999
1096.5,-120899.3
1098.5,-120914.0
1100.5,-120920.95
1102.5,-120921.35
1104.5,-120921.8
1106.5,-120921.95
1108.5,-120917.50000000001
1110.5,-120905.95000000003
1112.5,-120887.20000000001
1114.5,-120865.90000000001
1116.5,-120849.45000000001
1118.5,-120839.20000000001
1120.5,-120832.20000000001
1122.5,-120828.40000000001
1124.5,-120824.7
1126.5,-120814.95000000001
1128.5,-120808.05
1130.5,-120821.79999999999
1132.5,-120848.1
1134.5,-120858.95
1136.5,-120852.54999999999
1138.5,-120854.75
1140.5,-120873.5
1142.5,-120891.0
1144.5,-120896.95000000001
1146.5,-120897.6
1148.5,-120901.25
1150.5,-120916.15000000001
1152.5,-120946.4
1154.5,-120979.25
1156.5,-120998.3
1158.5,-121010.44999999998
1160.5,-121032.09999999999
1162.5,-121057.35
1164.5,-121071.40000000001
1166.5,-121077.50000000001
1168.5,-121083.3
1170.4,-121084.85
1172.4,-121084.09999999999
1174.4,-121091.09999999999
1176.4,-121100.54999999999
1178.4,-121098.7
1180.4,-121090.9
1182.4,-121092.3
1184.4,-121102.35
1186.4,-121111.15000000001
1188.4,-121117.65000000001
1190.4,-121126.90000000001
1192.4,-121139.45
1194.4,-121151.3
1196.4,-121158.90000000002
1198.4,-121160.90000000001
1200.4,-121156.95000000001
1202.4,-121146.7
1204.4,-121129.0
1206.4,-121097.30000000002
1208.4,-121039.25000000003
1210.4,-120949.30000000003
1212.4,-120837.15000000001
1214.4,-120714.35
1216.4,-120581.65000000001
1218.4,-120437.6
1220.4,-120290.8
1222.4,-120157.95000000001
1224.4,-120055.30000000002
1226.4,-119990.45000000001
1228.4,-119956.40000000001
1230.4,-119940.5
1232.4,-119940.75000000001
1234.4,-119960.7
1236.4,-119992.15000000001
1238.4,-120020.70000000001
1240.4,-120043.25000000001
1242.38,-120066.4
1244.35,-120097.65
1246.33,-120147.75
1248.3,-120225.4
1250.3,-120324.4
1252.3,-120432.9
1254.3,-120553.55000000002
1256.3,-120695.25000000001
1258.3,-120850.8
1260.3,-120999.00000000001
1262.3,-121123.95
1264.3,-121221.3
1266.3,-121292.75
1268.3,-121338.70000000001
1270.3,-121353.20000000003
1272.3,-121332.00000000001
1274.3,-121290.10000000002
1276.3,-121254.55000000002
1278.3,-121233.95000000003
1280.3,-121213.85
1282.3,-121187.05000000002
1284.3,-121164.55
1286.3,-121153.5
1288.3,-121147.65000000001
1290.3,-121142.29999999999
1292.3,-121139.44999999998
1294.3,-121138.95
1296.3,-121138.5
1298.3,-121139.9
1300.3,-121145.34999999999
1302.3,-121149.09999999999
1304.3,-121142.2
1306.3,-121127.05
1308.3,-121118.55
1310.3,-121123.05
1312.3,-121127.00000000001
1314.3,-121116.75000000003
1316.3,-121100.45000000001
1318.3,-121095.55
1320.3,-121105.00000000001
1322.28,-121116.25000000001
1324.25,-121117.85
1326.23,-121110.30000000002
1328.2,-121103.40000000002
1330.2,-121104.7
1332.2,-121109.65000000001
1334.2,-121107.55
1336.2,-121096.59999999999
1338.2,-121086.65000000001
1340.2,-121086.6
1342.2,-121093.95
1344.2,-121099.40000000001
1346.2,-121098.60000000002
1348.2,-121096.10000000002
1350.2,-121098.50000000001
1352.2,-121106.25000000001
1354.2,-121112.95000000001
1356.2,-121111.25
1358.2,-121101.55
1360.2,-121092.90000000001
1362.2,-121092.55
1364.2,-121096.40000000001
1366.2,-121094.3
1368.2,-121082.55000000002
1370.2,-121066.3
1372.2,-121052.6
1374.2,-121043.85
1376.2,-121035.85
1378.2,-121022.45000000001
1380.2,-121005.00000000001
1382.2,-120993.20000000001
1384.2,-120990.70000000001
1386.2,-120985.85
1388.2,-120967.55
1390.2,-120943.15000000002
1392.2,-120927.65000000001
1394.2,-120920.85
1396.2,-120909.5
1398.2,-120887.6
1400.2,-120863.3
1402.18,-120845.75
1404.15,-120833.45
1406.13,-120817.99999999999
1408.1,-120796.85
1410.1,-120777.15
1412.1,-120765.55000000002
1414.1,-120759.00000000001
1416.1,-120749.15
1418.1,-120732.15
1420.1,-120711.0
1422.1,-120690.40000000001
1424.1,-120671.25
1426.1,-120651.54999999999
1428.1,-120631.2
1430.1,-120612.55
1432.1,-120596.40000000001
1434.1,-120583.35
1436.1,-120575.09999999999
1438.1,-120568.55000000002
1440.1,-120556.45000000001
1442.1,-120540.90000000001
1444.1,-120533.30000000002
1446.1,-120536.20000000001
1448.1,-120539.6
1450.1,-120537.25
1452.1,-120532.2
1454.1,-120528.45
1456.1,-120528.05
1458.1,-120530.50000000001
1460.1,-120529.45000000001
1462.1,-120522.20000000001
1464.1,-120520.45000000001
1466.1,-120533.7
1468.1,-120549.2
1470.1,-120550.15000000001
1472.1,-120543.15000000002
1474.1,-120544.45000000003
1476.1,-120552.85000000002
1478.1,-120557.30000000002
1480.1,-120556.40000000001
1482.08,-120554.45000000001
1484.05,-120554.24999999999
1486.03,-120560.90000000001
1488.0,-120575.95000000001
1490.0,-120589.25
1492.0,-120592.95000000001
1494.0,-120596.40000000001
1496.0,-120612.40000000001
1498.0,-120638.4
1500.0,-120662.75
1502.0,-120679.3
1504.0,-120690.45
1506.0,-120705.05
1508.0,-120731.70000000003
1510.0,-120765.80000000002
1512.0,-120791.59999999999
1514.0,-120805.74999999999
1516.0,-120824.64999999998
1518.0,-120859.74999999999
1520.0,-120899.84999999999
1522.0,-120928.45000000001
1524.0,-120944.70000000001
1526.0,-120959.35
1528.0,-120980.85
1530.0,-121009.95000000001
1532.0,-121039.85
1534.0,-121061.50000000001
1536.0,-121075.35
1538.0,-121092.35000000002
1540.0,-121117.50000000003
1542.0,-121140.75000000001
1544.0,-121151.7
1546.0,-121153.90000000001
1548.0,-121158.05000000002
1550.0,-121169.00000000001
1552.0,-121184.25
1554.0,-121198.15
1556.0,-121206.3
1558.0,-121210.75000000001
1560.0,-121219.15000000001
1561.98,-121233.7
1563.95,-121247.75
1565.93,-121256.35
1567.9,-121262.65000000001
1569.9,-121270.70000000001
1571.9,-121279.45000000001
1573.9,-121285.20000000001
1575.9,-121285.55
1577.9,-121282.85
1579.9,-121284.8
1581.9,-121295.65000000001
1583.9,-121307.85
1585.9,-121310.55000000002
1587.9,-121304.60000000002
1589.9,-121301.55000000002
1591.9,-121307.50000000003
1593.9,-121314.75000000003
1595.9,-121312.50000000003
1597.9,-121301.30000000003
1599.9,-121291.95000000003
1601.9,-121291.20000000003
1603.9,-121293.40000000001
1605.9,-121288.75
1607.9,-121276.00000000001
1609.9,-121264.45000000001
1611.9,-121262.70000000001
1613.9,-121267.8
1615.9,-121269.24999999999
1617.9,-121263.54999999999
1619.9,-121257.84999999999
1621.9,-121259.45
1623.9,-121266.85
1625.9,-121272.1
1627.9,-121270.75
1629.9,-121267.90000000001
1631.9,-121270.95000000001
1633.9,-121279.15
1635.9,-121288.44999999998
1637.9,-121299.29999999999
1639.9,-121307.55
1641.88,-121305.59999999999
1643.85,-121303.0
1645.83,-121318.25
1647.8,-121343.25
1649.8,-121352.50000000001
1651.8,-121347.3
1653.8,-121350.40000000002
1655.8,-121364.80000000002
1657.8,-121374.85
1659.8,-121375.3
1661.8,-121371.65000000001
1663.8,-121368.95
1665.8,-121375.20000000001
1667.8,-121394.2
1669.8,-121411.65
1671.8,-121413.15
1673.8,-121409.45
1675.8,-121417.65000000001
1677.8,-121432.15000000001
1679.8,-121441.15000000001
1681.8,-121448.35
1683.8,-121456.55
1685.8,-121459.15000000001
1687.8,-121461.3
1689.8,-121473.95000000001
1691.8,-121487.7
1693.8,-121488.3
1695.8,-121484.9
1697.8,-121490.40000000001
1699.8,-121498.0
1701.8,-121499.4
1703.8,-121498.90000000001
1705.8,-121499.40000000001
1707.8,-121498.55
1709.8,-121498.6
1711.8,-121501.00000000001
1713.8,-121499.80000000002
1715.8,-121491.90000000001
1717.8,-121485.1
1719.8,-121487.5
1721.78,-121493.84999999999
1723.75,-121489.74999999999
1725.73,-121471.09999999998
1727.7,-121450.65
1729.7,-121439.8
1731.7,-121434.00000000001
1733.7,-121423.50000000001
1735.7,-121407.1
1737.7,-121389.80000000002
1739.7,-121375.85000000002
1741.7,-121366.30000000002
1743.7,-121356.20000000003
1745.7,-121337.75000000003
1747.7,-121311.80000000002
1749.7,-121289.40000000002
1751.7,-121277.20000000001
1753.7,-121268.90000000001
1755.7,-121256.05000000003
1757.7,-121240.25000000003
1759.7,-121230.50000000003
1761.7,-121233.10000000002
1763.7,-121245.55000000002
1765.7,-121258.00000000001
1767.7,-121262.95000000003
1769.7,-121265.05000000002
1771.7,-121275.20000000001
1773.7,-121295.15000000001
1775.7,-121315.70000000001
1777.7,-121329.75000000001
1779.7,-121340.85
1781.7,-121358.05
1783.7,-121385.3
1785.7,-121416.25000000001
1787.7,-121442.65000000001
1789.7,-121466.05000000002
1791.7,-121495.6
1793.7,-121534.5
1795.7,-121575.35
1797.7,-121606.9
1799.6,-121622.99999999999
1801.6,-121629.2
1803.6,-121637.85
1805.6,-121651.85000000002
1807.6,-121662.1
1809.6,-121663.85000000002
1811.6,-121663.30000000002
1813.6,-121666.55000000002
1815.6,-121673.85
1817.6,-121684.15000000002
1819.6,-121694.60000000002
1821.6,-121702.35
1823.6,-121712.35
1825.6,-121731.20000000001
1827.6,-121751.55
1829.6,-121757.5
1831.6,-121743.99999999999
1833.6,-121718.45
1835.6,-121684.2
1837.6,-121632.29999999999
1839.6,-121550.49999999999
1841.6,-121437.1
1843.6,-121304.45000000003
1845.6,-121165.65000000002
1847.6,-121021.85
1849.6,-120869.95000000003
1851.6,-120718.75000000003
1853.6,-120588.05000000003
1855.6,-120492.75000000003
1857.6,-120432.10000000002
1859.6,-120396.3
1861.6,-120381.2
1863.6,-120389.3
1865.6,-120415.45
1867.6,-120443.8
1869.6,-120464.5
1871.6,-120482.40000000001
1873.6,-120506.20000000001
1875.6,-120542.6
1877.6,-120600.40000000001
1879.5,-120685.95000000001
1881.5,-120794.50000000001
1883.5,-120917.35
1885.5,-121053.0
1887.5,-121203.15000000001
1889.5,-121362.05
1891.5,-121515.4
1893.5,-121646.0
1895.5,-121743.05
1897.5,-121808.80000000002
1899.5,-121849.30000000002
1901.5,-121858.90000000002
1903.5,-121831.90000000001
1905.5,-121787.05
1907.5,-121754.55
1909.5,-121739.9
1911.5,-121725.75
1913.5,-121705.1
1915.5,-121688.55
1917.5,-121685.05
1919.5,-121691.65000000001
1921.5,-121698.65
1923.5,-121699.0
1925.5,-121696.95
1927.5,-121701.4
1929.5,-121710.05000000002
1931.5,-121711.65000000001
1933.5,-121703.00000000003
1935.5,-121690.45000000001
1937.5,-121678.95000000001
1939.5,-121670.40000000001
1941.5,-121664.90000000002
1943.5,-121658.15000000001
1945.5,-121645.85
1947.5,-121631.95000000001
1949.5,-121623.95
1951.48,-121621.90000000001
1953.45,-121617.8
1955.43,-121604.95000000001
1957.4,-121585.35
1959.4,-121568.75
1961.4,-121561.04999999999
1963.4,-121555.2
1965.4,-121541.2
1967.4,-121522.7
1969.4,-121513.3
1971.4,-121517.90000000002
1973.4,-121527.55
1975.4,-121531.5
1977.4,-121528.50000000001
1979.4,-121525.8
1981.4,-121529.8
1983.4,-121537.40000000001
1985.4,-121539.35
1987.4,-121532.70000000003
1989.4,-121525.45000000001
1991.4,-121525.75
1993.4,-121531.3
1995.4,-121533.90000000001
1997.4,-121531.84999999999
1999.4,-121531.55
2001.4,-121536.79999999999
2003.4,-121543.24999999999
2005.4,-121544.7
2007.4,-121539.25000000001
2009.4,-121528.65000000002
2011.4,-121517.65000000002
2013.4,-121511.10000000002
2015.4,-121507.10000000002
2017.4,-121498.95000000001
2019.4,-121486.74999999999
2021.4,-121479.05
2023.4,-121479.9
2025.4,-121483.5
2027.4,-121481.8
2029.4,-121470.65000000001
2031.38,-121452.05000000002
2033.35,-121434.95000000001
2035.33,-121425.00000000001
2037.3,-121413.50000000001
2039.3,-121389.15
2041.3,-121358.55
2043.3,-121338.0
2045.3,-121327.95000000003
2047.3,-121313.35000000002
2049.3,-121287.20000000001
2051.3,-121258.3
2053.3,-121237.95
2055.3,-121227.9
2057.3,-121218.7
2059.3,-121199.75
2061.3,-121172.84999999999
2063.3,-121150.2
2065.3,-121135.85
2067.3,-121121.6
2069.3,-121104.15000000001
2071.3,-121090.5
2073.3,-121084.09999999999
2075.3,-121080.8
2077.3,-121078.1
2079.3,-121075.90000000001
2081.3,-121071.40000000001
2083.3,-121063.60000000002
2085.3,-121059.00000000001
2087.3,-121063.20000000001
2089.3,-121071.45000000001
2091.3,-121075.1
2093.3,-121073.95
2095.3,-121076.3
2097.3,-121087.85000000002
2099.3,-121103.5
2101.3,-121112.15000000001
2103.3,-121111.40000000001
2105.3,-121113.90000000002
2107.3,-121132.05000000002
2109.3,-121158.84999999999
2111.28,-121176.4
2113.25,-121181.79999999999
2115.23,-121191.0
2117.2,-121214.8
2119.2,-121245.25
2121.2,-121270.35
2123.2,-121289.7
2125.2,-121311.2
2127.2,-121341.1
2129.2,-121377.90000000001
2131.2,-121410.50000000001
2133.2,-121430.10000000002
2135.2,-121445.1
2137.2,-121469.8
2139.2,-121502.20000000001
2141.2,-121532.70000000003
2143.2,-121560.6
2145.2,-121583.15000000001
2147.2,-121592.85
2149.2,-121600.84999999999
2151.2,-121627.85
2153.2,-121666.1
2155.2,-121689.84999999999
2157.2,-121699.84999999999
2159.2,-121717.4
2161.2,-121746.7
2163.2,-121776.2
2165.2,-121798.4
2167.2,-121809.9
2169.2,-121813.7
2171.2,-121826.20000000001
2173.2,-121855.6
2175.2,-121881.49999999999
2177.2,-121885.4
2179.2,-121883.55
2181.2,-121898.45000000001
2183.2,-121922.55
2185.2,-121940.1
2187.2,-121955.40000000001
2189.2,-121973.75
2191.18,-121988.15000000001
2193.15,-121998.20000000001
2195.13,-122010.35
2197.1,-122018.49999999999
2199.1,-122015.99999999999
2201.1,-122014.19999999998
2203.1,-122023.4
2205.1,-122036.60000000002
2207.1,-122046.55000000002
2209.1,-122055.10000000002
2211.1,-122061.50000000003
2213.1,-122064.85000000002
2215.1,-122073.55000000002
2217.1,-122091.70000000001
2219.1,-122107.75
2221.1,-122112.75
2223.1,-122115.7
2225.1,-122128.2
2227.1,-122145.3
2229.1,-122154.3
2231.1,-122153.70000000001
2233.1,-122155.85000000002
2235.1,-122171.25000000001
2237.1,-122195.15000000002
2239.1,-122212.30000000002
2241.1,-122215.60000000002
2243.1,-122213.35000000002
2245.1,-122215.05000000002
2247.1,-122219.70000000001
2249.1,-122222.25
2251.1,-122222.34999999999
2253.1,-122222.2
2255.1,-122225.15000000001
2257.1,-122234.90000000002
2259.1,-122248.30000000002
2261.1,-122255.3
2263.1,-122254.34999999999
2265.1,-122255.09999999999
2267.1,-122262.54999999999
2269.1,-122271.45
2271.08,-122277.45
2273.05,-122279.85
2275.03,-122278.85
2277.0,-122280.40000000001
2279.0,-122292.55
2281.0,-122310.45000000001
2283.0,-122322.15000000001
2285.0,-122329.49999999999
2287.0,-122344.25
2289.0,-122366.90000000001
2291.0,-122386.45
2293.0,-122396.55
2295.0,-122401.00000000001
2297.0,-122409.2
2299.0,-122427.5
2301.0,-122449.15
2303.0,-122459.79999999999
2305.0,-122459.7
2307.0,-122466.55
2309.0,-122488.55
2311.0,-122511.85
2313.0,-122522.6
2315.0,-122525.40000000001
2317.0,-122531.65000000001
2319.0,-122543.80000000002
2321.0,-122558.75000000001
2323.0,-122574.05000000002
2325.0,-122585.95000000001
2327.0,-122591.05000000002
2329.0,-122592.50000000001
2331.0,-122596.55000000002
2333.0,-122602.90000000001
2335.0,-122604.55
2337.0,-122597.95000000001
2339.0,-122589.55
2341.0,-122588.95000000001
2343.0,-122595.50000000001
2345.0,-122596.85
2347.0,-122584.40000000001
2349.0,-122566.15
2350.98,-122556.75
2352.95,-122556.9
2354.93,-122551.49999999999
2356.9,-122530.99999999999
2358.9,-122505.04999999999
2360.9,-122487.30000000002
2362.9,-122477.05000000002
2364.9,-122466.60000000002
2366.9,-122458.25000000001
2368.9,-122460.85000000002
2370.9,-122474.70000000001
2372.9,-122489.8
2374.9,-122496.90000000001
2376.9,-122497.1
2378.9,-122500.05
2380.9,-122512.05000000002
2382.9,-122528.05
2384.9,-122540.20000000001
2386.9,-122549.55
2388.9,-122562.75
2390.9,-122583.45000000001
2392.9,-122611.8
2394.9,-122645.3
2396.9,-122677.25000000001
2398.9,-122702.3
2400.9,-122723.65000000001
2402.9,-122747.75000000001
2404.9,-122774.5
2406.9,-122796.69999999998
2408.9,-122807.59999999999
2410.9,-122810.0
2412.9,-122817.04999999999
2414.9,-122837.05
2416.9,-122859.85000000002
2418.9,-122870.90000000001
2420.9,-122875.70000000003
2422.9,-122894.20000000001
2424.9,-122931.85
2426.9,-122972.00000000001
2428.9,-122998.55
2430.88,-123013.2
2432.85,-123028.25
2434.83,-123049.65000000001
2436.8,-123069.50000000001
2438.8,-123073.10000000002
2440.8,-123052.6
2442.8,-123010.70000000001
2444.8,-122948.95000000001
2446.8,-122859.55000000002
2448.8,-122736.90000000001
2450.8,-122590.75
2452.8,-122439.0
2454.8,-122291.34999999999
2456.8,-122148.99999999999
2458.8,-122017.8
2460.8,-121910.35
2462.8,-121834.45
2464.8,-121788.9
2466.8,-121770.94999999998
2468.8,-121776.55
2470.8,-121793.40000000001
2472.8,-121807.90000000002
2474.8,-121820.00000000001
2476.8,-121839.20000000001
2478.8,-121868.0
2480.8,-121902.5
2482.8,-121946.95
2484.8,-122014.7
2486.8,-122115.45000000001
2488.8,-122245.5
2490.8,-122389.40000000001
2492.8,-122533.20000000001
2494.8,-122677.75
2496.8,-122829.05
2498.8,-122973.6
2500.8,-123081.9
2502.8,-123142.05
2504.8,-123170.04999999999
2506.8,-123180.84999999999
2508.8,-123171.65000000001
2510.78,-123140.90000000002
2512.75,-123102.65000000002
2514.73,-123072.95000000003
2516.7,-123055.50000000001
2518.7,-123045.90000000001
2520.7,-123039.59999999999
2522.7,-123033.65
2524.7,-123028.65000000001
2526.7,-123029.00000000001
2528.7,-123037.60000000002
2530.7,-123050.60000000002
2532.7,-123060.50000000001
2534.7,-123063.75
2536.7,-123064.00000000001
2538.7,-123068.0
2540.7,-123077.49999999999
2542.7,-123086.24999999999
2544.7,-123086.15
2546.7,-123077.55000000002
2548.7,-123070.10000000002
2550.7,-123070.75000000001
2552.7,-123073.95000000001
2554.7,-123069.7
2556.7,-123060.05
2558.7,-123057.95
2560.7,-123068.0
2562.7,-123077.75000000001
2564.7,-123074.00000000001
2566.7,-123060.65000000002
2568.7,-123051.35000000002
2570.7,-123049.25
2572.7,-123044.1
2574.7,-123028.59999999999
2576.7,-123007.8
2578.7,-122990.8
2580.7,-122980.29999999999
2582.7,-122972.09999999999
2584.7,-122961.1
2586.7,-122947.45000000001
2588.7,-122937.05
2590.68,-122933.5
2592.65,-122931.45
2594.63,-122922.15
2596.6,-122903.79999999999
2598.6,-122882.65
2600.6,-122866.0
2602.6,-122857.15000000001
2604.6,-122852.65000000002
2606.6,-122844.30000000002
2608.6,-122828.85
2610.6,-122815.20000000001
2612.6,-122813.55
2614.6,-122819.60000000002
2616.6,-122818.65000000002
2618.6,-122805.55000000002
2620.6,-122791.45000000001
2622.6,-122787.35
2624.6,-122789.15000000001
2626.6,-122784.55
2628.6,-122770.4
2630.6,-122756.05000000002
2632.6,-122751.05000000003
2634.6,-122753.65000000002
2636.6,-122751.5
2638.6,-122735.95000000001
2640.6,-122714.8
2642.6,-122701.35
2644.6,-122694.7
2646.6,-122685.84999999999
2648.6,-122675.8
2650.6,-122666.55
2652.6,-122651.3
2654.6,-122631.20000000001
2656.6,-122618.75000000001
2658.6,-122611.55000000002
2660.6,-122593.75000000001
2662.6,-122567.00000000001
2664.6,-122547.6
2666.6,-122538.3
2668.6,-122529.75
2670.58,-122517.20000000003
2672.55,-122498.25000000001
2674.53,-122474.25000000001
2676.5,-122459.35000000002
2678.5,-122461.90000000002
2680.5,-122461.95
2682.5,-122439.05000000002
2684.5,-122408.45000000001
2686.5,-122394.65000000001
2688.5,-122390.00000000001
2690.5,-122376.05
2692.5,-122358.00000000001
2694.5,-122347.05000000002
2696.5,-122339.1
2698.5,-122331.05
2700.5,-122325.95
2702.5,-122317.65000000001
2704.5,-122301.8
2706.5,-122290.39999999998
2708.5,-122290.6
2710.5,-122291.2
2712.5,-122285.70000000001
2714.5,-122282.09999999999
2716.5,-122283.85
2718.5,-122287.00000000001
2720.5,-122293.70000000001
2722.5,-122307.99999999999
2724.5,-122324.44999999998
2726.5,-122336.8
2728.5,-122350.30000000002
2730.5,-122373.55000000002
2732.5,-122402.75000000001
2734.5,-122425.65000000002
2736.5,-122440.90000000001
2738.5,-122461.70000000001
2740.5,-122495.25000000001
2742.5,-122532.50000000001
2744.5,-122563.90000000002
2746.5,-122591.55000000002
2748.4,-122620.05000000002
2750.4,-122649.40000000001
2752.4,-122678.95000000001
2754.4,-122706.40000000001
2756.4,-122727.2
2758.4,-122744.19999999998
2760.4,-122768.64999999998
2762.4,-122802.95
2764.4,-122834.79999999999
2766.4,-122854.15
2768.4,-122863.9
2770.4,-122872.2
2772.4,-122884.50000000001
2774.4,-122900.65
2776.4,-122914.0
2778.4,-122918.95000000001
2780.4,-122921.05
2782.4,-122929.50000000001
2784.4,-122941.55000000002
2786.4,-122947.05000000002
2788.4,-122944.95000000001
2790.4,-122943.5
2792.4,-122948.45
2794.4,-122958.25
2796.4,-122966.25
2798.4,-122966.29999999999
2800.4,-122960.4
2802.4,-122958.3
2804.4,-122965.20000000001
2806.4,-122973.35000000002
2808.4,-122971.75000000001
2810.4,-122961.05
2812.4,-122953.45
2814.4,-122956.75
2816.4,-122962.85000000002
2818.4,-122958.80000000002
2820.4,-122946.65000000001
2822.4,-122940.5
2824.4,-122944.7
2826.4,-122948.59999999999
2828.3,-122944.65
2830.3,-122937.75
2832.3,-122935.25
2834.3,-122938.7
2836.3,-122945.09999999999
2838.3,-122948.90000000001
2840.3,-122946.15000000001
2842.3,-122940.25
2844.3,-122937.45
2846.3,-122938.90000000001
2848.3,-122942.55000000002
2850.3,-122946.70000000003
2852.3,-122948.00000000001
2854.3,-122945.6
2856.3,-122947.35
2858.3,-122958.55
2860.3,-122969.25
2862.3,-122968.3
2864.3,-122963.3
2866.3,-122968.95000000001
2868.3,-122983.45
2870.3,-122992.50000000001
2872.3,-122991.25
2874.3,-122988.40000000001
2876.3,-122991.95000000001
2878.3,-122999.95000000001
2880.3,-123004.10000000003
2882.3,-122999.25000000003
2884.3,-122992.10000000002
2886.3,-122994.90000000002
2888.3,-123006.90000000002
2890.3,-123013.95000000001
2892.3,-123011.70000000001
2894.3,-123012.50000000001
2896.3,-123022.45000000001
2898.3,-123031.45
2900.28,-123032.0
2902.25,-123028.6
2904.23,-123025.40000000001
2906.2,-123022.55000000002
2908.2,-123022.60000000002
2910.2,-123025.40000000002
2912.2,-123022.50000000001
2914.2,-123009.45000000001
2916.2,-122994.95000000001
2918.2,-122987.70000000003
2920.2,-122983.75000000001
2922.2,-122972.65000000001
2924.2,-122948.15000000001
2926.2,-122914.45
2928.2,-122885.05
2930.2,-122868.4
2932.2,-122854.2
2934.2,-122828.25
2936.2,-122797.2
2938.2,-122780.50000000001
2940.2,-122781.05
2942.2,-122783.6
2944.2,-122778.4
2946.2,-122771.4
2948.2,-122772.34999999999
2950.2,-122782.45
2952.2,-122793.40000000001
2954.2,-122797.35
2956.2,-122796.65000000001
2958.2,-122799.75
2960.2,-122809.4
2962.2,-122822.75
2964.2,-122839.75000000001
2966.2,-122861.85000000002
2968.2,-122887.90000000002
2970.2,-122917.00000000001
2972.2,-122949.20000000001
2974.2,-122978.95000000001
2976.2,-122998.55000000002
2978.2,-123009.15000000002
2980.18,-123019.35000000002
2982.15,-123032.65000000001
2984.13,-123043.50000000001
2986.1,-123044.99999999999
2988.1,-123036.75
2990.1,-123027.6
2992.1,-123027.7
2994.1,-123034.15
2996.1,-123033.44999999998
2998.1,-123024.15
3000.1,-123023.95
3002.1,-123044.75000000001
3004.1,-123074.70000000003
3006.1,-123095.20000000001
3008.1,-123102.25
3010.1,-123103.10000000002
3012.1,-123102.45000000001
3014.1,-123097.50000000001
3016.1,-123078.90000000002
3018.1,-123036.35000000002
3020.1,-122968.40000000002
3022.1,-122881.55000000002
3024.1,-122777.60000000002
3026.1,-122650.65000000002
3028.1,-122501.80000000003
3030.1,-122345.35000000002
3032.1,-122197.35
3034.1,-122066.75000000001
3036.1,-121958.2
3038.1,-121874.79999999999
3040.1,-121817.3
3042.1,-121787.3
3044.1,-121785.20000000001
3046.1,-121800.55
3048.1,-121815.74999999999
3050.1,-121824.25
3052.1,-121833.90000000001
3054.1,-121852.15
3056.1,-121879.79999999999
3058.1,-121917.45
3060.08,-121968.30000000002
3062.05,-122037.90000000001
3064.03,-122133.85
3066.0,-122258.10000000002
3068.0,-122399.35000000002
3070.0,-122542.00000000001
3072.0,-122678.8
3074.0,-122807.75
3076.0,-122921.95
3078.0,-123006.65000000001
3080.0,-123048.35
3082.0,-123047.80000000002
3084.0,-123023.05000000002
3086.0,-122993.40000000001
3088.0,-122962.8
3090.0,-122925.90000000001
3092.0,-122886.04999999999
3094.0,-122857.05
3096.0,-122846.00000000003
3098.0,-122844.05000000002
3100.0,-122838.15000000002
3102.0,-122826.85000000002
3104.0,-122818.05
3106.0,-122814.1
3108.0,-122808.45000000001
3110.0,-122796.50000000001
3112.0,-122781.85000000002
3114.0,-122769.1
3116.0,-122757.7
3118.0,-122746.55000000002
3120.0,-122735.25
3122.0,-122719.54999999999
3124.0,-122695.7
3126.0,-122670.95
3128.0,-122657.3
3130.0,-122654.50000000001
3132.0,-122649.45000000001
3134.0,-122631.50000000001
3136.0,-122606.10000000002
3138.0,-122590.15000000002
3139.98,-122588.80000000002
3141.95,-122583.45000000001
3143.93,-122560.00000000001
3145.9,-122535.80000000002
3147.9,-122530.90000000001
3149.9,-122533.2
3151.9,-122523.50000000001
3153.9,-122506.90000000001
3155.9,-122493.20000000001
3157.9,-122479.50000000001
3159.9,-122468.85000000002
3161.9,-122468.15000000002
3163.9,-122466.85000000002
3165.9,-122452.40000000001
3167.9,-122434.4
3169.9,-122425.05
3171.9,-122419.55
3173.9,-122413.45000000001
3175.9,-122408.55
3177.9,-122398.25000000001
3179.9,-122379.3
3181.9,-122368.55
3183.9,-122374.74999999999
3185.9,-122375.2
3187.9,-122352.50000000001
3189.9,-122326.65000000001
3191.9,-122318.55000000002
3193.9,-122316.00000000001
3195.9,-122300.7
3197.9,-122276.3
3199.9,-122252.6
3201.9,-122233.25
3203.9,-122220.9
3205.9,-122210.95000000001
3207.9,-122190.95000000001
3209.9,-122162.65000000002
3211.9,-122141.3
3213.9,-122126.85000000002
3215.9,-122104.90000000002
3217.9,-122074.8
3219.88,-122047.1
3221.85,-122019.95000000001
3223.83,-121985.30000000002
3225.8,-121947.15000000001
3227.8,-121913.10000000002
3229.8,-121878.90000000001
3231.8,-121839.50000000001
3233.8,-121803.05
3235.8,-121778.59999999999
3237.8,-121759.80000000002
3239.8,-121733.75000000001
3241.8,-121698.70000000003
3243.8,-121664.15000000001
3245.8,-121637.45000000001
3247.8,-121616.45
3249.8,-121592.95000000001
3251.8,-121563.00000000001
3253.8,-121532.35
3255.8,-121508.75000000001
3257.8,-121490.59999999999
3259.8,-121469.34999999999
3261.8,-121442.8
3263.8,-121420.05
3265.8,-121410.3
3267.8,-121410.10000000002
3269.8,-121406.4
3271.8,-121392.15000000001
3273.8,-121374.15000000001
3275.8,-121362.9
3277.8,-121359.8
3279.8,-121357.9
3281.8,-121351.79999999999
3283.8,-121343.15
3285.8,-121338.69999999998
3287.8,-121343.15
3289.8,-121353.09999999999
3291.8,-121360.45
3293.8,-121362.85
3295.8,-121365.8
3297.8,-121374.40000000001
3299.78,-121389.35
3301.75,-121408.05
3303.73,-121423.7
3305.7,-121431.9
3307.7,-121441.15000000001
3309.7,-121462.00000000001
3311.7,-121486.65000000002
3313.7,-121499.85000000003
3315.7,-121507.05000000002
3317.7,-121526.90000000001
3319.7,-121561.00000000003
3321.7,-121593.50000000001
3323.7,-121616.00000000001
3325.7,-121634.1
3327.7,-121653.85
3329.7,-121674.25
3331.7,-121689.90000000001
3333.7,-121696.65
3335.7,-121697.45000000001
3337.7,-121701.70000000003
3339.7,-121715.15000000002
3341.7,-121733.25000000003
3343.7,-121747.05000000002
3345.7,-121752.40000000002
3347.7,-121752.70000000001
3349.7,-121755.20000000001
3351.7,-121762.70000000001
3353.7,-121769.6
3355.7,-121768.65000000001
3357.7,-121759.7
3359.7,-121747.95
3361.7,-121737.4
3363.7,-121727.84999999999
3365.7,-121715.79999999999
3367.7,-121699.54999999999
3369.7,-121685.34999999999
3371.7,-121681.79999999999
3373.7,-121686.45
3375.7,-121686.45
3377.7,-121674.99999999999
3379.68,-121659.4
3381.65,-121651.15000000001
3383.63,-121651.55
3385.6,-121650.25000000001
3387.6,-121639.45
3389.6,-121626.4
3391.6,-121623.75000000003
3393.6,-121628.65000000001
3395.6,-121625.1
3397.6,-121609.15
3399.6,-121596.4
3401.6,-121598.95
3403.6,-121609.05
3405.6,-121611.75
3407.6,-121603.90000000001
3409.6,-121593.65000000001
3411.6,-121587.34999999999
3413.6,-121584.40000000001
3415.6,-121581.40000000001
3417.6,-121575.45
3419.6,-121564.05
3421.6,-121548.65000000001
3423.6,-121537.05
3425.6,-121533.85
3427.6,-121530.75
3429.6,-121517.00000000001
3431.6,-121497.05
3433.6,-121485.3
3435.6,-121485.34999999999
3437.6,-121485.34999999999
3439.6,-121474.6
3441.6,-121456.95000000001
3443.6,-121444.95000000001
3445.6,-121442.15000000002
3447.6,-121436.85000000002
3449.6,-121418.55000000002
3451.6,-121395.40000000001
3453.6,-121383.50000000001
3455.6,-121384.10000000002
3457.5,-121383.40000000002
3459.5,-121372.15000000002
3461.5,-121354.00000000001
3463.5,-121337.65000000001
3465.5,-121328.05
3467.5,-121321.3
3469.5,-121307.05
3471.5,-121281.20000000001
3473.5,-121252.80000000002
3475.5,-121232.65000000002
3477.5,-121219.75000000003
3479.5,-121204.15000000001
3481.5,-121178.70000000001
3483.5,-121146.05000000002
3485.5,-121116.7
3487.5,-121098.25
3489.5,-121087.15000000001
3491.5,-121075.80000000002
3493.5,-121064.65000000002
3495.5,-121059.90000000001
3497.5,-121063.04999999999
3499.5,-121068.34999999999
3501.5,-121067.79999999999
3503.5,-121058.79999999999
3505.5,-121049.25000000001
3507.5,-121050.85000000002
3509.5,-121062.70000000001
3511.5,-121071.45000000003
3513.5,-121071.05000000002
3515.5,-121071.15000000001
3517.5,-121081.20000000001
3519.5,-121097.10000000002
3521.5,-121108.65000000001
3523.5,-121113.40000000001
3525.5,-121117.8
3527.5,-121127.5
3529.48,-121138.95000000001
3531.45,-121142.05
3533.43,-121130.90000000002
3535.4,-121111.40000000001
3537.4,-121095.70000000001
3539.4,-121088.15000000002
3541.4,-121081.40000000001
3543.4,-121068.6
3545.4,-121053.05
3547.4,-121041.15
3549.4,-121034.2
3551.4,-121029.85
3553.4,-121024.29999999999
3555.4,-121012.74999999999
3557.4,-120997.5
3559.4,-120990.05
3561.4,-120994.45
3563.4,-120997.8
3565.4,-120987.90000000001
3567.4,-120966.45000000003
3569.4,-120936.00000000001
3571.4,-120888.55000000002
3573.4,-120814.05000000003
3575.4,-120708.10000000002
3577.4,-120573.35
3579.4,-120421.9
3581.4,-120268.79999999999
3583.4,-120117.54999999999
3585.4,-119966.79999999999
3587.4,-119829.74999999999
3589.4,-119728.3
3591.4,-119669.6
3593.4,-119644.59999999999
3595.4,-119643.5
3597.4,-119658.90000000002
3599.4,-119680.80000000002
3601.4,-119699.7
3603.4,-119709.75
3605.4,-119709.25000000001
3607.4,-119705.15000000001
3609.38,-119712.90000000001
3611.35,-119744.3
3613.33,-119800.0
3615.3,-119877.3
3617.3,-119975.35
3619.3,-120091.45
3621.3,-120219.5
3623.3,-120351.59999999999
3625.3,-120474.7
3627.3,-120572.65000000001
3629.3,-120637.65000000001
3631.3,-120671.95000000001
3633.3,-120675.95000000003
3635.3,-120645.25000000003
3637.3,-120582.60000000003
3639.3,-120505.10000000003
3641.3,-120435.00000000001
3643.3,-120384.6
3645.3,-120347.95000000001
3647.3,-120310.05000000002
3649.3,-120266.90000000001
3651.3,-120231.60000000002
3653.3,-120215.8
3655.3,-120210.54999999999
3657.3,-120195.75
3659.3,-120166.74999999999
3661.3,-120139.3
3663.3,-120124.35
3665.3,-120113.20000000001
3667.3,-120095.80000000002
3669.3,-120074.05000000002
3671.3,-120049.10000000002
3673.3,-120019.6
3675.3,-119995.50000000001
3677.3,-119985.20000000001
3679.3,-119974.8
3681.3,-119950.9
3683.3,-119926.5
3685.3,-119916.79999999997
3687.3,-119913.25
3689.28,-119901.6
3691.25,-119878.84999999999
3693.23,-119845.45000000001
3695.2,-119809.20000000001
3697.2,-119788.55
3699.2,-119785.90000000001
3701.2,-119776.55
3703.2,-119746.25000000001
3705.2,-119713.10000000002
3707.2,-119693.50000000001
3709.2,-119678.20000000003
3711.2,-119656.45000000003
3713.2,-119632.85
3715.2,-119612.1
3717.2,-119593.45
3719.2,-119579.35
3721.2,-119566.45000000001
3723.2,-119541.30000000002
3725.2,-119503.80000000002
3727.2,-119474.00000000001
3729.2,-119460.55
3731.2,-119448.15000000001
3733.2,-119425.35000000002
3735.2,-119397.6
3737.2,-119369.10000000002
3739.2,-119337.3
3741.2,-119305.70000000001
3743.2,-119279.45000000001
3745.2,-119251.5
3747.2,-119212.85
3749.2,-119169.9
3751.2,-119134.79999999999
3753.2,-119104.54999999999
3755.2,-119066.45
3757.2,-119018.85
3759.2,-118972.15
3761.2,-118933.99999999999
3763.2,-118902.15000000001
3765.2,-118868.15
3767.2,-118823.79999999999
3769.18,-118771.24999999999
3771.15,-118722.9
3773.13,-118683.7
3775.1,-118642.95000000001
3777.1,-118592.95000000001
3779.1,-118542.20000000001
3781.1,-118498.95000000001
3783.1,-118458.65000000001
3785.1,-118416.15000000001
3787.1,-118374.30000000002
3789.1,-118336.2
3791.1,-118301.4
3793.1,-118269.4
3795.1,-118236.05
3797.1,-118195.10000000002
3799.1,-118150.10000000002
3801.1,-118112.30000000003
3803.1,-118083.75000000003
3805.1,-118056.00000000001
3807.1,-118024.35
3809.1,-117990.8
3811.1,-117958.15000000001
3813.1,-117931.25000000001
3815.1,-117913.5
3817.1,-117897.45000000001
3819.1,-117871.45000000001
3821.1,-117838.75
3823.1,-117813.95000000001
3825.1,-117801.15000000002
3827.1,-117789.65000000002
3829.1,-117769.05000000002
3831.1,-117740.85000000002
3833.1,-117716.3
3835.1,-117706.05
3837.1,-117707.65
3839.1,-117706.34999999999
3841.1,-117694.50000000001
3843.1,-117682.8
3845.1,-117683.40000000001
3847.1,-117692.79999999999
3849.08,-117700.84999999999
3851.05,-117706.6
3853.03,-117714.30000000002
3855.0,-117723.40000000002
3857.0,-117730.35000000002
3859.0,-117733.75000000001
3861.0,-117734.00000000001
3863.0,-117735.15000000001
3865.0,-117743.2
3867.0,-117757.45000000001
3869.0,-117770.95000000001
3871.0,-117781.3
3873.0,-117792.1
3875.0,-117804.40000000002
3877.0,-117815.70000000001
3879.0,-117823.95000000001
3881.0,-117825.8
3883.0,-117819.75
3885.0,-117812.50000000001
3887.0,-117810.85
3889.0,-117809.8
3891.0,-117800.4
3893.0,-117784.90000000001
3895.0,-117774.85
3897.0,-117778.0
3899.0,-117790.55000000002
3901.0,-117798.50000000001
3903.0,-117790.40000000002
3905.0,-117772.4
3907.0,-117761.8
3909.0,-117762.55
3911.0,-117760.5
3913.0,-117745.50000000001
3915.0,-117724.95000000001
3917.0,-117711.6
3919.0,-117707.55
3921.0,-117703.9
3923.0,-117691.84999999999
3925.0,-117673.7
3927.0,-117660.05
3928.98,-117654.75
3930.95,-117648.8
3932.93,-117632.95
3934.9,-117608.8
3936.9,-117584.55000000002
3938.9,-117566.40000000002
3940.9,-117554.85000000003
3942.9,-117544.45000000003
3944.9,-117529.90000000001
3946.9,-117512.90000000001
3948.9,-117499.00000000001
3950.9,-117488.85
3952.9,-117477.65
3954.9,-117460.1
3956.9,-117435.84999999999
3958.9,-117413.0
3960.9,-117400.99999999999
3962.9,-117394.49999999999
3964.9,-117376.94999999998
3966.9,-117348.05
3968.9,-117327.5
3970.9,-117322.90000000001
3972.9,-117317.75000000001
3974.9,-117299.25000000001
3976.9,-117274.65000000002
3978.9,-117254.00000000001
3980.9,-117238.45000000001
3982.9,-117224.84999999999
3984.9,-117205.7
3986.9,-117174.95
3988.9,-117142.5
3990.9,-117124.65000000001
3992.9,-117117.70000000001
3994.9,-117104.05000000002
3996.9,-117079.65000000002
3998.9,-117053.60000000002
4000.9,-117029.25000000003
4002.9,-117005.40000000002
4004.9,-116983.20000000003
4006.8,-116959.10000000002
4008.8,-116927.65000000002
4010.8,-116895.65000000001
4012.8,-116873.70000000001
4014.8,-116855.90000000001
4016.8,-116827.25000000001
4018.8,-116787.5
4020.8,-116750.20000000001
4022.8,-116723.5
4024.8,-116704.0
4026.8,-116681.74999999999
4028.8,-116647.90000000001
4030.8,-116606.35000000002
4032.8,-116574.20000000001
4034.8,-116559.6
4036.8,-116550.20000000001
4038.8,-116534.70000000001
4040.8,-116521.20000000003
4042.8,-116520.35000000002
4044.8,-116527.30000000002
4046.8,-116531.85
4048.8,-116531.25
4050.8,-116527.90000000001
4052.8,-116527.0
4054.8,-116534.25000000001
4056.8,-116546.35
4058.8,-116553.25000000001
4060.8,-116554.5
4062.8,-116559.3
4064.8,-116570.55
4066.8,-116582.95
4068.8,-116592.15000000001
4070.8,-116595.85
4072.8,-116593.40000000001
4074.8,-116589.40000000001
4076.8,-116587.25
4078.78,-116580.15000000001
4080.75,-116561.0
4082.73,-116536.3
4084.7,-116517.75000000001
4086.7,-116506.25
4088.7,-116493.79999999999
4090.7,-116475.24999999999
4092.7,-116452.59999999999
4094.7,-116433.45
4096.7,-116425.50000000001
4098.7,-116426.55
4100.7,-116425.75
4102.7,-116420.35
4104.7,-116419.4
4106.7,-116426.35
4108.7,-116431.2
4110.7,-116422.7
4112.7,-116398.2
4114.7,-116360.09999999999
4116.7,-116309.04999999999
4118.7,-116239.54999999999
4120.7,-116142.05
4122.7,-116014.55
4124.7,-115868.90000000001
4126.7,-115720.70000000001
4128.7,-115577.85000000002
4130.7,-115444.40000000002
4132.7,-115327.85000000002
4134.7,-115237.65000000001
4136.7,-115180.65000000002
4138.7,-115159.00000000001
4140.7,-115166.6
4142.7,-115187.65000000001
4144.7,-115207.1
4146.7,-115221.75
4148.7,-115236.0
4150.7,-115251.75
4152.7,-115267.8
4154.7,-115287.20000000001
4156.7,-115321.15000000002
4158.68,-115383.50000000001
4160.65,-115475.75000000001
4162.63,-115582.20000000001
4164.6,-115691.25
4166.6,-115809.74999999999
4168.6,-115940.25
4170.6,-116062.05
4172.6,-116154.45000000001
4174.6,-116215.00000000001
4176.6,-116242.0
4178.6,-116229.75
4180.6,-116187.90000000001
4182.6,-116133.40000000001
4184.6,-116068.05000000002
4186.6,-115994.25000000001
4188.6,-115934.0
4190.6,-115901.1
4192.6,-115880.5
4194.6,-115856.8
4196.6,-115832.8
4198.6,-115808.75000000001
4200.6,-115779.95000000001
4202.6,-115757.80000000002
4204.6,-115753.15
4206.6,-115747.5
4208.6,-115721.00000000001
4210.6,-115689.20000000001
4212.6,-115673.05
4214.6,-115662.95
4216.6,-115644.75
4218.6,-115624.85
4220.6,-115609.20000000001
4222.6,-115595.7
4224.6,-115589.0
4226.6,-115587.69999999998
4228.6,-115574.54999999999
4230.6,-115547.25
4232.6,-115527.35
4234.6,-115521.15
4236.6,-115511.19999999998
4238.58,-115492.15
4240.55,-115476.25
4242.53,-115466.4
4244.5,-115454.8
4246.5,-115440.55
4248.5,-115428.2
4250.5,-115418.90000000001
4252.5,-115412.70000000001
4254.5,-115409.65000000002
4256.5,-115406.60000000002
4258.5,-115399.90000000002
4260.5,-115388.65000000001
4262.5,-115373.55
4264.5,-115358.55
4266.5,-115349.95000000001
4268.5,-115346.55000000002
4270.5,-115337.65000000001
4272.5,-115317.80000000003
4274.5,-115296.10000000002
4276.5,-115283.65000000001
4278.5,-115279.4
4280.5,-115273.0
4282.5,-115256.0
4284.5,-115231.20000000003
4286.5,-115210.15000000002
4288.5,-115196.50000000003
4290.5,-115178.00000000001
4292.5,-115145.34999999999
4294.5,-115108.65
4296.5,-115082.2
4298.5,-115063.40000000001
4300.5,-115040.1
4302.5,-115008.90000000001
4304.5,-114975.25
4306.5,-114943.24999999999
4308.5,-114912.59999999999
4310.5,-114880.7
4312.5,-114845.3
4314.5,-114806.65000000001
4316.5,-114767.85
4318.48,-114731.90000000001
4320.45,-114699.25
4322.43,-114668.15
4324.4,-114635.85000000002
4326.4,-114601.25
4328.4,-114568.55
4330.4,-114543.00000000001
4332.4,-114521.45
4334.4,-114493.24999999999
4336.4,-114455.59999999999
4338.4,-114419.95
4340.4,-114395.05
4342.4,-114373.04999999999
4344.4,-114342.35
4346.4,-114307.55
4348.4,-114282.25
4350.4,-114268.40000000001
4352.4,-114255.6
4354.4,-114237.05
4356.4,-114215.90000000001
4358.4,-114199.40000000001
4360.4,-114190.95000000001
4362.4,-114184.85000000002
4364.4,-114171.40000000001
4366.4,-114150.30000000002
4368.4,-114132.70000000001
4370.4,-114125.90000000001
4372.4,-114124.05000000002
4374.4,-114118.75000000001
4376.4,-114110.85
4378.4,-114106.79999999999
4380.4,-114108.34999999999
4382.4,-114111.34999999999
4384.4,-114113.29999999999
4386.4,-114115.6
4388.4,-114119.45
4390.4,-114125.95000000001
4392.4,-114136.75000000001
4394.4,-114148.7
4396.3,-114153.34999999999
4398.3,-114149.94999999998
4400.3,-114151.34999999998
4402.3,-114167.74999999997
4404.3,-114191.5
4406.3,-114208.59999999999
4408.3,-114216.90000000001
4410.3,-114224.6
4412.3,-114238.3
4414.3,-114257.90000000001
4416.3,-114275.1
4418.3,-114279.55
4420.3,-114275.5
4422.3,-114281.55
4424.3,-114302.40000000002
4426.3,-114318.80000000002
4428.3,-114318.65000000002
4430.3,-114315.45
4432.3,-114324.9
4434.3,-114343.84999999999
4436.3,-114360.59999999998
4438.3,-114368.74999999999
4440.3,-114369.65
4442.3,-114370.8
4444.3,-114379.25000000003
4446.3,-114391.60000000002
4448.3,-114397.25000000001
4450.3,-114392.75000000001
4452.3,-114385.55
4454.3,-114384.15000000001
4456.3,-114390.35
4458.3,-114398.75000000001
4460.3,-114401.5
4462.3,-114396.65
4464.3,-114392.5
4466.3,-114398.1
4468.28,-114408.60000000002
4470.25,-114408.70000000001
4472.23,-114394.00000000001
4474.2,-114378.45000000001
4476.2,-114374.85000000002
4478.2,-114378.65000000002
4480.2,-114377.35000000002
4482.2,-114368.6
4484.2,-114361.40000000001
4486.2,-114362.40000000001
4488.2,-114366.40000000001
4490.2,-114362.45000000001
4492.2,-114349.55
4494.2,-114340.15
4496.2,-114342.4
4498.2,-114347.19999999998
4500.2,-114342.59999999999
4502.2,-114331.49999999999
4504.2,-114323.65000000001
4506.2,-114320.0
4508.2,-114316.54999999999
4510.2,-114313.24999999999
4512.2,-114310.14999999998
4514.2,-114304.59999999999
4516.2,-114296.65000000001
4518.2,-114287.7
4520.2,-114273.70000000001
4522.2,-114250.00000000001
4524.2,-114219.75
4526.2,-114191.75000000001
4528.2,-114172.30000000002
4530.2,-114160.6
4532.2,-114146.7
4534.2,-114119.45
4536.2,-114082.3
4538.2,-114051.3
4540.2,-114031.59999999999
4542.2,-114010.40000000001
4544.2,-113978.5
4546.2,-113944.15
4548.18,-113918.55000000002
4550.15,-113901.05000000002
4552.13,-113883.00000000001
4554.1,-113861.40000000001
4556.1,-113843.90000000001
4558.1,-113839.30000000002
4560.1,-113845.10000000002
4562.1,-113850.35000000002
4564.1,-113850.20000000001
4566.1,-113849.55000000002
4568.1,-113853.85000000002
4570.1,-113863.55000000002
4572.1,-113875.85000000002
4574.1,-113887.45000000003
4576.1,-113898.70000000001
4578.1,-113914.35000000002
4580.1,-113935.70000000001
4582.1,-113956.1
4584.1,-113970.15000000001
4586.1,-113980.75
4588.1,-113993.7
4590.1,-114010.95
4592.1,-114030.84999999999
4594.1,-114047.50000000001
4596.1,-114054.20000000001
4598.1,-114053.50000000001
4600.1,-114056.95000000003
4602.1,-114069.05000000002
4604.1,-114081.3
4606.1,-114085.45
4608.1,-114082.34999999999
4610.1,-114076.6
4612.1,-114072.3
4614.1,-114071.55000000002
4616.1,-114070.95000000001
4618.1,-114066.55
4620.1,-114064.8
4622.1,-114075.8
4624.1,-114094.20000000001
4626.1,-114102.95
4628.08,-114097.8
4630.05,-114090.75
4632.03,-114085.95
4634.0,-114067.95000000001
4636.0,-114017.6
4638.0,-113929.70000000001
4640.0,-113813.05000000002
4642.0,-113679.8
4644.0,-113535.6
4646.0,-113378.65000000001
4648.0,-113211.40000000001
4650.0,-113051.25000000001
4652.0,-112919.95
4654.0,-112824.84999999999
4656.0,-112759.59999999999
4658.0,-112717.79999999999
4660.0,-112695.64999999998
4662.0,-112689.09999999998
4664.0,-112695.7
4666.0,-112709.35
4668.0,-112713.15000000001
4670.0,-112696.95000000001
4672.0,-112678.0
4674.0,-112682.4
4676.0,-112716.8
4678.0,-112776.45000000001
4680.0,-112859.85000000002
4682.0,-112961.15000000002
4684.0,-113074.85000000002
4686.0,-113208.15000000001
4688.0,-113358.5
4690.0,-113494.45000000001
4692.0,-113590.95000000001
4694.0,-113657.05
4696.0,-113704.45
4698.0,-113724.9
4700.0,-113714.8
4702.0,-113684.35
4704.0,-113640.45
4706.0,-113591.45000000001
4707.98,-113558.10000000002
4709.95,-113549.45000000003
4711.93,-113547.30000000002
4713.9,-113536.90000000002
4715.9,-113527.55
4717.9,-113527.20000000001
4719.9,-113526.80000000002
4721.9,-113521.40000000002
4723.9,-113515.80000000002
4725.9,-113508.30000000002
4727.9,-113497.15000000002
4729.9,-113492.05
4731.9,-113494.15000000001
4733.9,-113486.6
4735.9,-113465.55000000002
4737.9,-113448.75
4739.9,-113441.55
4741.9,-113429.5
4743.9,-113407.5
4745.9,-113385.65000000001
4747.9,-113368.3
4749.9,-113350.85
4751.9,-113330.9
4753.9,-113308.35
4755.9,-113282.70000000001
4757.9,-113257.1
4759.9,-113237.85000000002
4761.9,-113225.60000000002
4763.9,-113214.05000000002
4765.9,-113198.30000000003
4767.9,-113180.65000000001
4769.9,-113166.50000000001
4771.9,-113158.25000000001
4773.9,-113153.1
4775.9,-113144.20000000001
4777.9,-113128.30000000002
4779.9,-113112.55000000002
4781.9,-113106.8
4783.9,-113110.3
4785.9,-113114.1
4787.88,-113112.09999999999
4789.85,-113104.60000000002
4791.83,-113097.40000000001
4793.8,-113097.70000000001
4795.8,-113102.45000000001
4797.8,-113098.55
4799.8,-113083.75000000001
4801.8,-113072.20000000001
4803.8,-113069.05
4805.8,-113061.85
4807.8,-113044.55
4809.8,-113027.59999999999
4811.8,-113019.59999999999
4813.8,-113018.2
4815.8,-113018.15000000001
4817.8,-113014.15000000001
4819.8,-113002.3
4821.8,-112987.00000000001
4823.8,-112975.60000000002
4825.8,-112964.10000000002
4827.8,-112943.70000000001
4829.8,-112917.45000000001
4831.8,-112894.75000000001
4833.8,-112875.85
4835.8,-112855.95000000001
4837.8,-112835.05
4839.8,-112813.6
4841.8,-112789.35000000002
4843.8,-112765.95000000003
4845.8,-112750.40000000001
4847.8,-112738.15000000001
4849.8,-112715.40000000001
4851.8,-112679.40000000001
4853.8,-112643.25000000001
4855.8,-112616.30000000002
4857.8,-112590.95000000001
4859.8,-112554.55000000002
4861.8,-112508.00000000001
4863.8,-112466.40000000001
4865.7,-112441.70000000001
4867.7,-112427.80000000002
4869.7,-112408.75000000001
4871.7,-112380.20000000001
4873.7,-112355.5
4875.7,-112346.10000000002
4877.7,-112344.55
4879.7,-112334.40000000001
4881.7,-112312.55000000002
4883.7,-112291.05
4885.7,-112278.75
4887.7,-112271.95000000001
4889.7,-112263.55000000002
4891.7,-112252.05
4893.7,-112240.0
4895.7,-112231.40000000002
4897.7,-112231.10000000002
4899.7,-112241.0
4901.7,-112256.40000000001
4903.7,-112269.90000000001
4905.7,-112279.15000000001
4907.7,-112288.65
4909.7,-112302.04999999999
4911.7,-112314.74999999999
4913.7,-112319.59999999999
4915.7,-112320.95
4917.7,-112331.54999999999
4919.7,-112354.20000000001
4921.7,-112377.15
4923.7,-112390.59999999999
4925.7,-112398.7
4927.7,-112413.09999999999
4929.7,-112439.15
4931.7,-112468.65000000001
4933.7,-112488.20000000003
4935.7,-112496.6
4937.7,-112506.55
4939.7,-112523.70000000001
4941.7,-112536.85
4943.7,-112536.20000000001
4945.6,-112527.9
4947.6,-112523.55
4949.6,-112525.3
4951.6,-112527.90000000001
4953.6,-112526.8
4955.6,-112520.50000000001
4957.6,-112512.15000000001
4959.6,-112507.45000000001
4961.6,-112506.45
4963.6,-112502.24999999999
4965.6,-112491.15
4967.6,-112477.85
4969.6,-112467.70000000001
4971.6,-112460.45000000001
4973.6,-112452.8
4975.6,-112443.0
4977.6,-112432.7
4979.6,-112425.95
4981.6,-112423.25
4983.6,-112419.49999999999
4985.6,-112411.04999999999
4987.6,-112401.35
4989.6,-112396.75000000001
4991.6,-112398.30000000002
4993.6,-112399.20000000001
4995.6,-112391.6
4997.6,-112377.25
4999.6,-112367.90000000001
5001.6,-112371.20000000001
5003.6,-112380.25
5005.6,-112382.45
5007.6,-112376.00000000001
5009.6,-112371.60000000002
5011.6,-112377.65000000002
5013.6,-112388.65000000002
5015.6,-112392.65000000002
5017.58,-112387.20000000003
5019.55,-112381.85
5021.53,-112386.35
5023.5,-112399.50000000001
5025.5,-112411.3
5027.5,-112414.6
5029.5,-112413.10000000002
5031.5,-112416.45000000001
5033.5,-112428.65
5035.5,-112444.3
5037.5,-112455.1
5039.5,-112457.10000000002
5041.5,-112453.90000000001
5043.5,-112453.0
5045.5,-112456.10000000002
5047.5,-112454.55000000002
5049.5,-112441.3
5051.5,-112422.75000000001
5053.5,-112410.05
5055.5,-112402.50000000001
5057.5,-112389.40000000001
5059.5,-112365.3
5061.5,-112336.00000000001
5063.5,-112311.75
5065.5,-112296.70000000001
5067.5,-112282.00000000001
5069.5,-112254.8
5071.5,-112216.7
5073.5,-112182.55
5075.5,-112159.0
5077.5,-112137.5
5079.5,-112110.65
5081.5,-112081.05
5083.5,-112054.29999999999
5085.5,-112033.95
5087.5,-112020.25
5089.5,-112010.09999999999
5091.5,-112002.85
5093.5,-112004.3
5095.5,-112017.35
5097.48,-112034.85
5099.45,-112048.70000000001
5101.43,-112059.45000000003
5103.4,-112072.35000000002
5105.4,-112088.90000000004
5107.4,-112107.50000000001
5109.4,-112126.95000000003
5111.4,-112145.85
5113.4,-112162.35
5115.4,-112178.20000000001
5117.4,-112199.25
5119.4,-112226.8
5121.4,-112253.4
5123.4,-112273.55
5125.4,-112292.05
5127.4,-112314.25000000001
5129.4,-112333.85
5131.4,-112340.3
5133.4,-112334.84999999999
5135.4,-112330.65
5137.4,-112336.84999999999
5139.4,-112349.44999999998
5141.4,-112357.89999999998
5143.4,-112357.25
5145.4,-112355.05
5147.4,-112364.8
5149.4,-112388.09999999999
5151.4,-112409.4
5153.4,-112416.4
5155.4,-112416.45
5157.4,-112422.29999999999
5159.4,-112431.94999999998
5161.4,-112433.84999999999
5163.4,-112421.69999999998
5165.4,-112395.59999999998
5167.4,-112355.24999999999
5169.4,-112296.7
5171.4,-112213.55
5173.4,-112100.20000000001
5175.4,-111957.0
5177.38,-111795.05000000002
5179.35,-111632.45000000001
5181.33,-111480.15000000001
5183.3,-111335.2
5185.3,-111198.65000000001
5187.3,-111088.05
5189.3,-111017.20000000001
5191.3,-110980.15000000001
5193.3,-110968.7
5195.3,-110977.35
5197.3,-110985.55
5199.3,-110975.6
5201.3,-110963.84999999999
5203.3,-110972.4
5205.3,-110989.55
5207.3,-111002.2
5209.3,-111033.0
5211.3,-111103.75000000001
5213.3,-111202.65000000002
5215.3,-111314.85
5217.3,-111441.2
5219.3,-111575.25000000001
5221.3,-111703.80000000002
5223.3,-111828.00000000001
5225.3,-111945.75000000001
5227.3,-112031.60000000002
5229.3,-112068.65000000004
5231.3,-112073.50000000003
5233.3,-112063.95000000001
5235.3,-112037.85000000002
5237.3,-112001.00000000001
5239.3,-111972.25
5241.3,-111954.05
5243.3,-111937.6
5245.3,-111928.79999999999
5247.3,-111931.45
5249.3,-111928.25
5251.3,-111913.65
5253.3,-111910.75000000001
5255.3,-111929.90000000002
5257.28,-111948.85000000002
5259.25,-111950.85000000002
5261.23,-111945.1
5263.2,-111940.80000000002
5265.2,-111932.85
5267.2,-111917.95000000001
5269.2,-111901.0
5271.2,-111884.34999999998
5273.2,-111866.65
5275.2,-111851.49999999999
5277.2,-111843.69999999998
5279.2,-111839.09999999999
5281.2,-111828.50000000001
5283.2,-111811.20000000001
5285.2,-111795.90000000001
5287.2,-111788.9
5289.2,-111787.65
5291.2,-111783.1
5293.2,-111767.75
5295.2,-111745.00000000001
5297.2,-111727.75000000001
5299.2,-111721.90000000001
5301.2,-111717.6
5303.2,-111704.55
5305.2,-111687.90000000001
5307.2,-111680.1
5309.2,-111683.00000000001
5311.2,-111686.60000000002
5313.2,-111681.75000000001
5315.2,-111669.55
5317.2,-111658.34999999999
5319.2,-111653.19999999998
5321.2,-111650.34999999999
5323.2,-111643.5
5325.2,-111632.7
5327.2,-111624.05
5329.2,-111621.05
5331.2,-111619.70000000001
5333.2,-111613.85
5335.2,-111604.1
5337.18,-111597.35
5339.15,-111595.55
5341.13,-111592.40000000002
5343.1,-111583.3
5345.1,-111572.15000000001
5347.1,-111564.95000000001
5349.1,-111562.9
5351.1,-111562.75000000001
5353.1,-111560.0
5355.1,-111552.10000000002
5357.1,-111542.30000000002
5359.1,-111537.15000000001
5361.1,-111537.05
5363.1,-111533.05000000002
5365.1,-111517.05
5367.1,-111492.15
5369.1,-111468.65000000001
5371.1,-111452.05
5373.1,-111437.40000000001
5375.1,-111415.0
5377.1,-111381.65
5379.1,-111347.90000000001
5381.1,-111328.35
5383.1,-111321.45
5385.1,-111307.8
5387.1,-111275.8
5389.1,-111237.8
5391.1,-111211.5
5393.1,-111196.9
5395.1,-111181.3
5397.1,-111156.35
5399.1,-111124.55
5401.1,-111095.70000000001
5403.1,-111078.45000000003
5405.1,-111069.80000000002
5407.1,-111058.05
5409.1,-111041.3
5411.1,-111030.65000000001
5413.1,-111030.70000000001
5415.1,-111032.15000000002
5417.08,-111027.70000000001
5419.05,-111019.8
5421.03,-111011.25
5423.0,-111003.85
5425.0,-111002.35
5427.0,-111006.0
5429.0,-111006.45
5431.0,-111003.75000000001
5433.0,-111008.50000000001
5435.0,-111021.25000000001
5437.0,-111030.3
5439.0,-111032.90000000001
5441.0,-111039.15000000001
5443.0,-111054.30000000002
5445.0,-111073.60000000002
5447.0,-111091.55000000002
5449.0,-111105.50000000001
5451.0,-111116.40000000001
5453.0,-111130.55
5455.0,-111153.3
5457.0,-111180.85000000002
5459.0,-111204.65000000002
5461.0,-111222.90000000002
5463.0,-111242.80000000002
5465.0,-111271.85
5467.0,-111307.25
5469.0,-111336.95
5471.0,-111355.29999999999
5473.0,-111371.85
5475.0,-111397.6
5477.0,-111429.80000000002
5479.0,-111456.95
5481.0,-111472.84999999999
5483.0,-111482.40000000001
5485.0,-111495.95000000001
5487.0,-111516.95000000001
5489.0,-111535.30000000003
5491.0,-111541.30000000002
5493.0,-111541.40000000002
5494.9,-111548.40000000002
5496.9,-111562.8
5498.9,-111576.25
5500.9,-111584.60000000002
5502.9,-111587.30000000002
5504.9,-111585.45000000001
5506.9,-111585.85
5508.9,-111592.34999999999
5510.9,-111594.65
5512.9,-111583.95
5514.9,-111572.9
5516.9,-111578.7
5518.9,-111595.65
5520.9,-111604.75
5522.9,-111601.6
5524.9,-111598.55
5526.9,-111605.1
5528.9,-111617.4
5530.9,-111623.75000000001
5532.9,-111618.75000000001
5534.9,-111611.1
5536.9,-111612.25000000001
5538.9,-111620.85
5540.9,-111627.5
5542.9,-111629.85
5544.9,-111632.3
5546.9,-111637.35000000002
5548.9,-111645.75000000001
5550.9,-111657.85000000002
5552.9,-111669.5
5554.9,-111674.10000000002
5556.9,-111672.25000000001
5558.9,-111671.7
5560.9,-111676.34999999999
5562.9,-111681.59999999999
5564.9,-111682.25
5566.9,-111680.7
5568.9,-111685.40000000001
5570.9,-111700.40000000001
5572.9,-111718.05000000003
5574.8,-111725.20000000003
5576.8,-111719.90000000002
5578.8,-111715.90000000001
5580.8,-111724.15000000001
5582.8,-111737.3
5584.8,-111742.4
5586.8,-111741.05
5588.8,-111745.20000000001
5590.8,-111758.95000000001
5592.8,-111773.65000000002
5594.8,-111778.40000000001
5596.8,-111772.20000000001
5598.8,-111765.80000000002
5600.8,-111768.35
5602.8,-111772.6
5604.8,-111764.75
5606.8,-111747.75000000001
5608.8,-111737.45000000003
5610.8,-111736.40000000002
5612.8,-111732.20000000001
5614.8,-111720.70000000001
5616.8,-111707.75000000001
5618.8,-111692.45000000003
5620.8,-111672.20000000003
5622.8,-111654.75000000001
5624.8,-111644.75000000001
5626.8,-111632.55
5628.8,-111612.05
5630.8,-111592.45
5632.8,-111582.59999999999
5634.8,-111580.45
5636.8,-111580.85
5638.8,-111581.6
5640.8,-111585.75
5642.8,-111600.95
5644.8,-111627.20000000001
5646.8,-111650.0
5648.8,-111660.15000000001
5650.8,-111670.79999999999
5652.8,-111697.04999999999
5654.7,-111732.15
5656.7,-111760.20000000001
5658.7,-111780.75000000001
5660.7,-111804.90000000001
5662.7,-111837.85
5664.7,-111875.2
5666.7,-111909.35
5668.7,-111936.20000000001
5670.7,-111960.1
5672.7,-111988.20000000001
5674.7,-112018.65000000002
5676.7,-112042.75000000001
5678.7,-112057.75000000001
5680.7,-112067.80000000002
5682.7,-112077.8
5684.7,-112092.70000000001
5686.7,-112112.75
5688.7,-112128.35
5690.7,-112133.15000000001
5692.7,-112136.55
5694.7,-112148.40000000001
5696.7,-112165.65000000001
5698.7,-112184.05000000002
5700.7,-112202.85000000002
5702.7,-112215.25000000001
5704.7,-112219.75000000001
5706.7,-112232.10000000002
5708.7,-112257.60000000002
5710.7,-112272.65000000001
5712.7,-112261.50000000001
5714.7,-112240.1
5716.7,-112219.85
5718.7,-112183.1
5720.7,-112110.4
5722.7,-112001.2
5724.7,-111863.8
5726.68,-111712.3
5728.65,-111565.60000000002
5730.63,-111428.80000000002
5732.6,-111294.00000000001
5734.6,-111170.50000000003
5736.6,-111083.15000000002
5738.6,-111035.30000000002
5740.6,-111009.3
5742.6,-111000.65
5744.6,-111012.04999999999
5746.6,-111028.05
5748.6,-111035.10000000002
5750.6,-111043.70000000003
5752.6,-111061.80000000002
5754.6,-111080.3
5756.6,-111103.3
5758.6,-111153.7
5760.6,-111240.35
5762.6,-111352.7
5764.6,-111481.95
5766.6,-111623.45
5768.6,-111770.85000000002
5770.6,-111920.20000000001
5772.6,-112063.8
5774.6,-112182.5
5776.6,-112263.0
5778.6,-112313.35
5780.6,-112346.50000000001
5782.6,-112360.25
5784.6,-112348.20000000001
5786.6,-112318.75
5788.6,-112290.99999999999
5790.6,-112277.34999999999
5792.6,-112275.79999999999
5794.6,-112277.34999999999
5796.6,-112276.2
5798.6,-112272.95
5800.6,-112270.65000000001
5802.6,-112271.45000000001
5804.6,-112275.65000000001
5806.58,-112278.95000000001
5808.55,-112274.20000000001
5810.53,-112262.20000000001
5812.5,-112253.50000000001
5814.5,-112252.35000000002
5816.5,-112249.10000000002
5818.5,-112235.20000000001
5820.5,-112214.45000000001
5822.5,-112196.7
5824.5,-112188.40000000001
5826.5,-112186.95000000001
5828.5,-112181.45000000001
5830.5,-112166.85000000002
5832.5,-112154.05000000002
5834.5,-112152.55000000002
5836.5,-112153.45000000001
5838.5,-112144.15000000001
5840.5,-112127.8
5842.5,-112115.85
5844.5,-112113.05000000002
5846.5,-112115.25000000001
5848.5,-112114.75000000001
5850.5,-112108.84999999999
5852.5,-112105.74999999999
5854.5,-112113.9
5856.5,-112127.15
5858.5,-112133.05
5860.5,-112130.50000000001
5862.5,-112128.05000000002
5864.5,-112130.50000000001
5866.5,-112136.35000000002
5868.5,-112142.25000000001
5870.5,-112144.6
5872.5,-112142.95
5874.5,-112141.44999999998
5876.5,-112143.04999999999
5878.5,-112145.90000000001
5880.5,-112147.15000000001
5882.5,-112145.90000000001
5884.5,-112143.45000000001
5886.48,-112144.15000000001
5888.45,-112150.6
5890.43,-112155.09999999999
5892.4,-112147.39999999998
5894.4,-112132.5
5896.4,-112126.55
5898.4,-112131.8
5900.4,-112132.95000000001
5902.4,-112121.30000000002
5904.4,-112106.55000000002
5906.4,-112099.80000000002
5908.4,-112096.50000000001
5910.4,-112084.05
5912.4,-112058.9
5914.4,-112030.45
5916.4,-112010.25
5918.4,-111999.6
5920.4,-111988.95
5922.4,-111969.05
5924.4,-111941.45000000001
5926.4,-111915.35
5928.4,-111894.95
5930.4,-111876.75
5932.4,-111857.7
5934.4,-111837.99999999999
5936.4,-111817.39999999998
5938.4,-111797.59999999999
5940.4,-111783.25
5942.4,-111771.6
5944.4,-111752.35
5946.4,-111726.60000000002
5948.4,-111711.85
5950.4,-111715.8
5952.4,-111723.45
5954.4,-111720.19999999998
5956.4,-111709.35
5958.4,-111700.85
5960.4,-111697.90000000001
5962.4,-111698.45000000001
5964.4,-111698.25
5966.38,-111696.05
5968.35,-111698.80000000002
5970.33,-111711.30000000002
5972.3,-111724.00000000003
5974.3,-111725.90000000001
5976.3,-111722.45000000001
5978.3,-111726.50000000001
5980.3,-111740.45000000001
5982.3,-111758.35
5984.3,-111774.65000000002
5986.3,-111785.95000000003
5988.3,-111793.50000000003
5990.3,-111803.85000000002
5992.3,-111819.45000000001
5994.3,-111833.95
5996.3,-111843.65000000001
5998.3,-111855.15000000001
6000.3,-111877.05000000002
6002.3,-111909.35000000002
6004.3,-111943.60000000002
6006.3,-111970.10000000002
6008.3,-111986.8
6010.3,-112002.5
6012.3,-112026.34999999999
6014.3,-112054.9
6016.3,-112075.95
6018.3,-112084.25000000001
6020.3,-112087.55000000003
6022.3,-112096.55000000003
6024.3,-112112.1
6026.3,-112124.4
6028.3,-112126.45
6030.3,-112126.0
6032.3,-112136.70000000001
6034.3,-112158.30000000002
6036.3,-112176.35000000002
6038.3,-112182.20000000001
6040.3,-112182.15000000001
6042.3,-112184.40000000001
6044.3,-112187.35
6046.28,-112184.95
6048.25,-112176.45
6050.23,-112167.09999999999
6052.2,-112162.65000000001
6054.2,-112163.75
6056.2,-112165.75000000001
6058.2,-112165.1
6060.2,-112163.8
6062.2,-112165.55
6064.2,-112171.04999999999
6066.2,-112179.8
6068.2,-112190.4
6070.2,-112198.49999999997
6072.2,-112200.84999999999
6074.2,-112201.8
6076.2,-112206.30000000002
6078.2,-112209.55000000002
6080.2,-112204.65000000001
6082.2,-112196.8
6084.2,-112198.1
6086.2,-112209.50000000001
6088.2,-112218.95000000001
6090.2,-112217.3
6092.2,-112209.15000000001
6094.2,-112207.25
6096.2,-112217.50000000001
6098.2,-112231.00000000001
6100.2,-112234.65000000001
6102.2,-112228.0
6104.2,-112222.49999999999
6106.2,-112223.49999999999
6108.2,-112223.34999999999
6110.2,-112214.2
6112.2,-112199.45000000001
6114.2,-112189.20000000003
6116.2,-112188.90000000001
6118.2,-112194.10000000002
6120.2,-112196.10000000002
6122.2,-112193.10000000002
6124.2,-112191.75000000001
6126.18,-112195.6
6128.15,-112198.84999999999
6130.13,-112195.14999999998
6132.1,-112184.9
6134.1,-112170.65000000001
6136.1,-112155.00000000001
6138.1,-112143.55000000002
6140.1,-112139.45000000001
6142.1,-112136.5
6144.1,-112127.70000000001
6146.1,-112117.95000000001
6148.1,-112117.30000000002
6150.1,-112124.60000000002
6152.1,-112127.45000000001
6154.1,-112118.35000000002
6156.1,-112104.55
6158.1,-112099.05
6160.1,-112103.00000000001
6162.1,-112102.55000000002
6164.1,-112087.05000000002
6166.1,-112066.05
6168.1,-112058.79999999999
6170.1,-112067.65
6172.1,-112074.25
6174.1,-112067.2
6176.1,-112058.1
6178.1,-112061.35
6180.1,-112071.90000000001
6182.1,-112075.3
6184.1,-112067.84999999999
6186.1,-112056.44999999998
6188.1,-112049.09999999999
6190.1,-112050.34999999999
6192.1,-112056.45000000001
6194.1,-112056.30000000002
6196.1,-112046.75000000001
6198.1,-112037.15
6200.1,-112030.79999999999
6202.1,-112021.24999999999
6204.1,-112011.25
6206.08,-112006.74999999999
6208.05,-111996.04999999999
6210.03,-111970.15
6212.0,-111947.84999999999
6214.0,-111941.95000000001
6216.0,-111930.2
6218.0,-111896.45000000001
6220.0,-111862.60000000002
6222.0,-111849.6
6224.0,-111846.9
6226.0,-111837.25
6228.0,-111815.85000000002
6230.0,-111785.65000000002
6232.0,-111760.20000000004
6234.0,-111755.80000000002
6236.0,-111764.00000000003
6238.0,-111759.25000000001
6240.0,-111740.65000000001
6242.0,-111729.90000000001
6244.0,-111729.40000000001
6246.0,-111724.09999999999
6248.0,-111716.9
6250.0,-111720.4
6252.0,-111727.95
6254.0,-111730.05
6256.0,-111735.6
6258.0,-111747.65000000001
6260.0,-111750.6
6262.0,-111740.30000000002
6264.0,-111732.85000000002
6266.0,-111735.35
6268.0,-111738.60000000002
6270.0,-111736.10000000003
6272.0,-111727.95000000003
6274.0,-111715.75
6276.0,-111705.79999999999
6278.0,-111703.84999999999
6280.0,-111705.25
6282.0,-111702.95
6284.0,-111700.90000000001
6285.98,-111705.8
6287.95,-111712.75000000001
6289.93,-111711.20000000003
6291.9,-111701.55000000002
6293.9,-111695.15000000002
6295.9,-111700.35000000002
6297.9,-111715.15000000002
6299.9,-111731.15000000002
6301.9,-111740.95000000001
6303.9,-111744.35
6305.9,-111747.65
6307.9,-111752.24999999999
6309.9,-111747.45
6311.9,-111719.85
6313.9,-111664.25000000001
6315.9,-111580.65000000002
6317.9,-111470.15000000002
6319.9,-111337.50000000003
6321.9,-111189.10000000003
6323.9,-111028.15000000001
6325.9,-110860.90000000001
6327.9,-110703.75000000001
6329.9,-110574.05
6331.9,-110474.60000000002
6333.9,-110396.85000000002
6335.9,-110339.05
6337.9,-110310.75000000003
6339.9,-110314.80000000002
6341.9,-110332.95000000003
6343.9,-110340.35000000002
6345.9,-110331.15000000001
6347.9,-110321.45
6349.9,-110327.84999999999
6351.9,-110352.3
6353.9,-110389.35
6355.9,-110441.65
6357.9,-110520.70000000001
6359.9,-110631.20000000001
6361.9,-110760.55000000003
6363.8,-110889.80000000002
6365.8,-111011.7
6367.8,-111128.95
6369.8,-111236.40000000001
6371.8,-111318.05
6373.8,-111362.85000000002
6375.8,-111371.60000000002
6377.8,-111349.60000000002
6379.8,-111306.40000000002
6381.8,-111259.70000000003
6383.8,-111223.95000000001
6385.8,-111196.95000000001
6387.8,-111170.35
6389.8,-111147.1
6391.8,-111136.25
6393.8,-111135.95000000001
6395.8,-111133.1
6397.8,-111120.05000000002
6399.8,-111103.50000000001
6401.8,-111094.35
6403.8,-111092.35
6405.8,-111086.85
6407.8,-111071.95
6409.8,-111054.1
6411.8,-111042.8
6413.8,-111038.70000000001
6415.8,-111033.05000000002
6417.8,-111017.35000000002
6419.8,-110993.05000000002
6421.8,-110970.65000000002
6423.8,-110955.3
6425.8,-110938.8
6427.8,-110912.70000000001
6429.8,-110881.60000000002
6431.8,-110855.65000000002
6433.8,-110837.5
6435.8,-110823.6
6437.8,-110809.6
6439.8,-110791.90000000001
6441.8,-110771.40000000002
6443.7,-110753.65000000001
6445.7,-110739.55
6447.7,-110722.95000000001
6449.7,-110701.45000000001
6451.7,-110680.05000000002
6453.7,-110662.30000000002
6455.7,-110645.05000000002
6457.7,-110622.55000000002
6459.7,-110592.15000000001
6461.7,-110558.05000000002
6463.7,-110529.5
6465.7,-110510.24999999999
6467.7,-110491.9
6469.7,-110464.19999999998
6471.7,-110428.34999999999
6473.7,-110394.45
6475.7,-110367.79999999999
6477.7,-110343.0
6479.7,-110311.00000000001
6481.7,-110270.15000000001
6483.7,-110229.30000000002
6485.7,-110197.00000000003
6487.7,-110169.00000000003
6489.7,-110133.20000000003
6491.7,-110088.75000000003
6493.7,-110049.40000000001
6495.7,-110024.45
6497.7,-110007.40000000001
6499.7,-109986.69999999998
6501.7,-109958.90000000001
6503.7,-109928.50000000001
6505.7,-109902.3
6507.7,-109882.85
6509.7,-109864.25000000001
6511.7,-109837.95000000003
6513.7,-109804.70000000001
6515.68,-109773.15000000001
6517.65,-109746.25000000001
6519.63,-109718.25000000001
6521.6,-109685.80000000002
6523.6,-109652.90000000001
6525.6,-109624.0
6527.6,-109599.84999999999
6529.6,-109578.99999999999
6531.6,-109555.45000000001
6533.6,-109521.15000000002
6535.6,-109479.60000000003
6537.6,-109446.50000000003
6539.6,-109427.40000000001
6541.6,-109407.55
6543.6,-109375.05
6545.6,-109338.3
6547.6,-109310.6
6549.6,-109290.75
6551.6,-109267.8
6553.6,-109236.95
6555.6,-109206.84999999999
6557.6,-109190.8
6559.6,-109188.30000000002
6561.6,-109181.05000000002
6563.6,-109156.00000000001
6565.6,-109122.3
6567.6,-109095.65000000001
6569.6,-109076.85000000002
6571.6,-109056.6
6573.6,-109030.15000000001
6575.6,-108999.10000000002
6577.6,-108966.85
6579.6,-108937.35
6581.6,-108913.45000000001
6583.6,-108893.40000000001
6585.6,-108872.60000000002
6587.6,-108850.1
6589.6,-108831.20000000001
6591.6,-108819.65000000001
6593.6,-108808.45000000001
6595.58,-108786.85
6597.55,-108757.0
6599.53,-108733.95
6601.5,-108726.95
6603.5,-108728.75
6605.5,-108726.65000000001
6607.5,-108717.35
6609.5,-108710.0
6611.5,-108715.45
6613.5,-108731.90000000001
6615.5,-108745.15000000001
6617.5,-108748.6
6619.5,-108753.05
6621.5,-108767.6
6623.5,-108783.95000000001
6625.5,-108790.30000000003
6627.5,-108788.10000000002
6629.5,-108785.55000000002
6631.5,-108787.00000000001
6633.5,-108792.80000000002
6635.5,-108798.35
6637.5,-108796.55
6639.5,-108789.6
6641.5,-108786.95
6643.5,-108788.25
6645.5,-108783.95000000001
6647.5,-108772.45000000001
6649.5,-108759.55
6651.5,-108747.65000000002
6653.5,-108738.25
6655.5,-108734.1
6657.5,-108730.5
6659.5,-108719.15
6661.5,-108703.5
6663.5,-108695.34999999999
6665.5,-108696.19999999998
6667.5,-108694.4
6669.5,-108680.7
6671.5,-108658.1
6673.5,-108636.90000000002
6675.48,-108622.25000000003
6677.45,-108607.40000000002
6679.43,-108582.15000000002
6681.4,-108548.90000000002
6683.4,-108522.20000000003
6685.4,-108508.95000000003
6687.4,-108498.90000000001
6689.4,-108480.05
6691.4,-108453.7
6693.4,-108428.75
6695.4,-108407.4
6697.4,-108381.6
6699.4,-108344.05
6701.4,-108301.70000000001
6703.4,-108268.5
6705.4,-108244.34999999999
6707.4,-108219.0
6709.4,-108195.55
6711.4,-108183.1
6713.4,-108172.6
6715.4,-108153.75000000001
6717.4,-108139.55000000002
6719.4,-108140.55000000002
6721.4,-108139.50000000001
6723.4,-108122.80000000002
6725.4,-108105.45000000001
6727.4,-108102.05000000002
6729.4,-108105.20000000001
6731.4,-108104.1
6733.4,-108096.8
6735.4,-108085.05
6737.4,-108078.35
6739.4,-108088.85
6741.4,-108106.75
6743.4,-108106.85
6745.4,-108089.85
6747.4,-108081.75000000001
6749.4,-108085.90000000001
6751.4,-108080.40000000001
6753.4,-108064.10000000002
6755.38,-108055.75000000001
6757.35,-108054.65000000001
6759.33,-108048.5
6761.3,-108043.15000000001
6763.3,-108044.25000000001
6765.3,-108039.1
6767.3,-108024.0
6769.3,-108014.15
6771.3,-108014.4
6773.3,-108014.9
6775.3,-108013.49999999999
6777.3,-108012.5
6779.3,-108006.90000000001
6781.3,-107995.3
6783.3,-107983.2
6785.3,-107968.25
6787.3,-107944.45
6789.3,-107920.25000000001
6791.3,-107909.60000000002
6793.3,-107908.15000000002
6795.3,-107897.85000000003
6797.3,-107873.05000000003
6799.3,-107846.60000000002
6801.3,-107831.80000000002
6803.3,-107826.65
6805.3,-107818.05
6807.3,-107797.20000000001
6809.3,-107768.85
6811.3,-107743.2
6813.3,-107722.85
6815.3,-107702.40000000001
6817.3,-107677.55000000002
6819.3,-107649.1
6821.3,-107622.25000000001
6823.3,-107604.30000000002
6825.3,-107597.10000000002
6827.3,-107591.70000000001
6829.3,-107578.45000000001
6831.3,-107559.15000000001
6833.3,-107541.65000000001
6835.28,-107526.95000000001
6837.25,-107508.80000000002
6839.23,-107482.65000000001
6841.2,-107451.25000000001
6843.2,-107423.45000000001
6845.2,-107404.25
6847.2,-107385.95
6849.2,-107356.35
6851.2,-107315.55
6853.2,-107276.05000000002
6855.2,-107247.5
6857.2,-107226.90000000001
6859.2,-107203.45000000001
6861.2,-107170.55
6863.2,-107134.0
6865.2,-107104.65
6867.2,-107082.85
6869.2,-107058.90000000001
6871.2,-107029.95000000003
6873.2,-107005.70000000004
6875.2,-106994.85000000003
6877.2,-106993.35000000003
6879.2,-106989.95000000003
6881.2,-106978.75000000001
6883.2,-106963.65000000001
6885.2,-106951.15000000001
6887.2,-106943.90000000002
6889.2,-106941.20000000003
6891.2,-106941.05000000002
6893.2,-106940.95000000001
6895.2,-106940.45
6897.2,-106941.34999999999
6899.2,-106942.84999999999
6901.2,-106941.3
6903.2,-106935.65000000001
6905.2,-106928.55
6907.2,-106923.00000000001
6909.2,-106918.75000000001
6911.2,-106909.8
6913.1,-106889.55
6915.1,-106863.2
6917.1,-106845.50000000001
6919.1,-106839.45
6921.1,-106830.55
6923.1,-106810.00000000001
6925.1,-106789.3
6927.1,-106783.10000000002
6929.1,-106790.15000000002
6931.1,-106797.90000000002
6933.1,-106797.3
6935.1,-106790.55
6937.1,-106789.1
6939.1,-106799.34999999999
6941.1,-106809.6
6943.1,-106801.75000000001
6945.1,-106772.95000000001
6947.1,-106730.65000000001
6949.1,-106672.70000000001
6951.1,-106589.35000000002
6953.1,-106478.2
6955.1,-106344.2
6957.1,-106193.25
6959.1,-106034.49999999999
6961.1,-105878.34999999999
6963.1,-105731.65
6965.1,-105602.1
6967.1,-105500.6
6969.1,-105431.80000000002
6971.1,-105392.40000000001
6973.1,-105378.45000000001
6975.1,-105381.25
6977.1,-105384.59999999999
6979.1,-105381.74999999999
6981.1,-105383.25
6983.1,-105395.95
6985.08,-105412.80000000002
6987.05,-105434.0
6989.03,-105477.95
6991.0,-105559.15000000001
6993.0,-105669.05000000002
6995.0,-105787.80000000002
6997.0,-105908.3
6999.0,-106037.70000000001
7001.0,-106178.75
7003.0,-106315.84999999999
7005.0,-106424.75
7007.0,-106493.25
7009.0,-106528.3
7011.0,-106540.95
7013.0,-106532.35000000002
7015.0,-106501.25000000001
7017.0,-106458.00000000001
7019.0,-106419.50000000001
7021.0,-106392.40000000001
7023.0,-106370.60000000002
7025.0,-106347.15000000002
7027.0,-106321.15000000001
7029.0,-106296.3
7031.0,-106277.5
7033.0,-106266.4
7035.0,-106259.2
7037.0,-106250.3
7039.0,-106238.55
7041.0,-106227.10000000002
7043.0,-106218.75000000001
7045.0,-106212.50000000001
7047.0,-106203.29999999999
7049.0,-106186.2
7051.0,-106164.9
7053.0,-106149.40000000001
7055.0,-106140.75000000001
7057.0,-106126.65000000001
7059.0,-106100.6
7061.0,-106073.65000000001
7063.0,-106059.60000000002
7064.98,-106058.35
7066.95,-106058.80000000002
7068.93,-106049.55
7070.9,-106029.65000000001
7072.9,-106011.85
7074.9,-106006.35
7076.9,-106002.5
7078.9,-105984.95
7080.9,-105961.09999999999
7082.9,-105950.1
7084.9,-105952.55000000002
7086.9,-105954.15000000001
7088.9,-105949.25
7090.9,-105940.85
7092.9,-105930.7
7094.9,-105922.24999999999
7096.9,-105919.9
7098.9,-105918.15
7100.9,-105906.74999999999
7102.9,-105886.75
7104.9,-105866.6
7106.9,-105847.65
7108.9,-105826.20000000001
7110.9,-105801.85
7112.9,-105776.1
7114.9,-105751.65
7116.9,-105734.25
7118.9,-105723.3
7120.9,-105705.95000000001
7122.9,-105674.55
7124.9,-105641.4
7126.9,-105621.05
7128.9,-105607.0
7130.9,-105581.9
7132.9,-105544.20000000001
7134.9,-105509.75000000001
7136.9,-105489.05
7138.9,-105475.3
7140.9,-105456.65000000001
7142.9,-105431.45000000001
7144.88,-105408.1
7146.85,-105393.85
7148.83,-105386.1
7150.8,-105374.45000000001
7152.8,-105353.35000000002
7154.8,-105328.80000000002
7156.8,-105308.7
7158.8,-105292.15
7160.8,-105274.6
7162.8,-105253.95
7164.8,-105228.4
7166.8,-105199.44999999998
7168.8,-105176.55
7170.8,-105166.19999999998
7172.8,-105160.09999999998
7174.8,-105146.84999999998
7176.8,-105129.04999999999
7178.8,-105117.35
7180.8,-105113.75
7182.8,-105110.09999999999
7184.8,-105100.40000000001
7186.8,-105088.50000000001
7188.8,-105084.75000000001
7190.8,-105093.20000000001
7192.8,-105103.5
7194.8,-105102.75
7196.8,-105094.40000000001
7198.8,-105094.05
7200.8,-105105.75
7202.8,-105117.25000000001
7204.8,-105119.55
7206.8,-105117.70000000001
7208.8,-105120.95
7210.8,-105130.8
7212.8,-105137.70000000001
7214.8,-105130.65000000001
7216.8,-105114.70000000001
7218.8,-105107.50000000001
7220.8,-105112.1
7222.8,-105114.60000000002
7224.78,-105112.5
7226.75,-105114.65
7228.73,-105114.2
7230.7,-105101.1
7232.7,-105090.55
7234.7,-105099.10000000002
7236.7,-105111.95
7238.7,-105110.15000000001
7240.7,-105103.1
7242.7,-105105.85
7244.7,-105114.05
7246.7,-105117.84999999999
7248.7,-105115.04999999999
7250.7,-105107.19999999998
7252.7,-105104.45
7254.7,-105121.05
7256.7,-105149.75
7258.7,-105165.00000000001
7260.7,-105165.05000000002
7262.7,-105176.40000000001
7264.7,-105205.35
7266.7,-105227.40000000001
7268.7,-105232.45
7270.7,-105236.69999999998
7272.7,-105247.24999999999
7274.7,-105255.49999999999
7276.7,-105259.54999999999
7278.7,-105261.59999999999
7280.7,-105258.95
7282.7,-105256.0
7284.7,-105262.40000000001
7286.7,-105274.45000000001
7288.7,-105281.7
7290.7,-105285.34999999999
7292.7,-105289.04999999999
7294.7,-105288.15
7296.7,-105281.6
7298.7,-105275.29999999999
7300.7,-105267.45
7302.7,-105250.3
7304.68,-105228.8
7306.65,-105219.04999999999
7308.63,-105225.25
7310.6,-105232.3
7312.6,-105226.40000000001
7314.6,-105214.50000000001
7316.6,-105214.05
7318.6,-105227.84999999999
7320.6,-105240.24999999999
7322.6,-105238.59999999999
7324.6,-105227.84999999999
7326.6,-105220.25
7328.6,-105219.70000000001
7330.6,-105220.30000000002
7332.6,-105216.70000000001
7334.6,-105210.1
7336.6,-105204.50000000001
7338.6,-105201.40000000002
7340.6,-105199.20000000001
7342.6,-105194.75
7344.6,-105184.35
7346.6,-105166.95000000001
7348.6,-105147.45000000001
7350.6,-105131.55000000002
7352.6,-105117.50000000001
7354.6,-105098.35
7356.6,-105073.75
7358.6,-105051.75
7360.6,-105036.85
7362.6,-105024.3
7364.6,-105009.19999999998
7366.6,-104993.9
7368.6,-104984.5
7370.6,-104984.75
7372.6,-104990.8
7374.6,-104992.0
7376.6,-104984.05000000002
7378.6,-104977.65000000001
7380.6,-104983.40000000002
7382.6,-104994.40000000001
7384.58,-104997.1
7386.55,-104991.7
7388.53,-104991.15
7390.5,-105005.25
7392.5,-105030.0
7394.5,-105051.05
7396.5,-105059.75
7398.5,-105064.35
7400.5,-105077.45000000003
7402.5,-105097.15000000004
7404.5,-105110.80000000003
7406.5,-105112.20000000003
7408.5,-105105.70000000001
7410.5,-105099.75
7412.5,-105100.95
7414.5,-105108.9
7416.5,-105115.79999999999
7418.5,-105117.1
7420.5,-105118.55000000002
7422.5,-105128.35000000002
7424.5,-105145.8
7426.5,-105161.6
7428.5,-105167.5
7430.5,-105164.65
7432.5,-105162.55000000002
7434.5,-105167.25
7436.5,-105172.40000000001
7438.5,-105167.8
7440.5,-105154.9
7442.5,-105146.7
7444.5,-105150.05
7446.5,-105155.70000000001
7448.5,-105150.75
7450.5,-105136.95
7452.5,-105127.40000000001
7454.5,-105125.35
7456.5,-105119.3
7458.5,-105100.85
7460.5,-105076.2
7462.4,-105055.30000000002
7464.4,-105040.70000000001
7466.4,-105029.00000000001
7468.4,-105014.80000000002
7470.4,-104995.65
7472.4,-104978.7
7474.4,-104973.7
7476.4,-104977.3
7478.4,-104977.5
7480.4,-104971.65000000001
7482.4,-104965.00000000001
7484.4,-104959.05
7486.4,-104954.35
7488.4,-104953.55
7490.4,-104951.84999999999
7492.4,-104941.69999999998
7494.4,-104930.74999999999
7496.4,-104932.24999999999
7498.4,-104940.1
7500.4,-104936.55
7502.4,-104920.75
7504.4,-104907.6
7506.4,-104904.55
7508.4,-104905.45
7510.4,-104900.4
7512.4,-104883.85
7514.4,-104861.15000000001
7516.4,-104846.60000000002
7518.4,-104845.1
7520.4,-104844.0
7522.4,-104834.2
7524.4,-104826.84999999999
7526.4,-104835.3
7528.4,-104852.85
7530.4,-104864.70000000001
7532.4,-104869.80000000002
7534.4,-104876.85000000002
7536.4,-104889.3
7538.4,-104905.55000000002
7540.4,-104924.6
7542.3,-104943.40000000001
7544.3,-104958.95000000001
7546.3,-104975.75000000001
7548.3,-104999.70000000001
7550.3,-105025.90000000001
7552.3,-105044.40000000002
7554.3,-105054.50000000001
7556.3,-105062.45
7558.3,-105071.55
7560.3,-105081.95
7562.3,-105091.3
7564.3,-105092.6
7566.3,-105083.25
7568.3,-105074.3
7570.3,-105074.55
7572.3,-105075.75
7574.3,-105068.35
7576.3,-105060.5
7578.3,-105065.25
7580.3,-105081.09999999999
7582.3,-105095.95
7584.3,-105100.99999999999
7586.3,-105097.45
7588.3,-105094.65
7590.3,-105096.95000000003
7592.3,-105091.35000000002
7594.3,-105059.50000000001
7596.3,-104999.85000000002
7598.3,-104923.35000000002
7600.3,-104832.20000000001
7602.3,-104719.40000000001
7604.3,-104585.20000000001
7606.3,-104440.25000000001
7608.3,-104295.55000000002
7610.3,-104158.90000000001
7612.3,-104038.45000000001
7614.28,-103942.75
7616.25,-103876.7
7618.23,-103840.30000000002
7620.2,-103831.20000000001
7622.2,-103844.55000000002
7624.2,-103869.20000000001
7626.2,-103890.95000000001
7628.2,-103904.95000000001
7630.2,-103920.90000000001
7632.2,-103951.25000000001
7634.2,-103997.40000000001
7636.2,-104052.60000000002
7638.2,-104116.85
7640.2,-104201.70000000001
7642.2,-104316.85
7644.2,-104455.20000000001
7646.2,-104597.20000000001
7648.2,-104730.85
7650.2,-104860.1
7652.2,-104986.3
7654.2,-105091.15000000001
7656.2,-105151.70000000001
7658.2,-105167.6
7660.2,-105158.30000000002
7662.2,-105138.65000000001
7664.2,-105111.25
7666.2,-105076.8
7668.2,-105039.65
7670.2,-105006.15
7672.2,-104982.8
7674.2,-104971.85
7676.2,-104967.2
7678.2,-104959.9
7680.2,-104947.7
7682.2,-104935.79999999999
7684.2,-104930.3
7686.2,-104932.55000000002
7688.2,-104937.00000000001
7690.2,-104934.45000000001
7692.2,-104922.45000000001
7694.18,-104910.6
7696.15,-104908.05
7698.13,-104907.7
7700.1,-104895.05
7702.1,-104872.54999999999
7704.1,-104858.5
7706.1,-104859.65
7708.1,-104861.5
7710.1,-104850.6
7712.1,-104832.0
7714.1,-104820.65
7716.1,-104824.14999999998
7718.1,-104833.64999999998
7720.1,-104833.94999999998
7722.1,-104825.65000000001
7724.1,-104823.5
7726.1,-104827.34999999999
7728.1,-104821.59999999999
7730.1,-104807.25
7732.1,-104799.15000000001
7734.1,-104794.75
7736.1,-104785.20000000001
7738.1,-104781.75000000001
7740.1,-104791.8
7742.1,-104796.4
7744.1,-104783.9
7746.1,-104770.75
7748.1,-104769.15000000001
7750.1,-104771.1
7752.1,-104768.85000000002
7754.1,-104758.50000000001
7756.1,-104734.60000000002
7758.1,-104705.90000000001
7760.1,-104691.35
7762.1,-104686.25000000001
7764.1,-104667.45000000001
7766.1,-104637.95
7768.1,-104622.45
7770.1,-104620.84999999999
7772.1,-104610.5
7774.08,-104586.45000000001
7776.05,-104559.25000000001
7778.03,-104530.05000000002
7780.0,-104499.55
7782.0,-104475.45
7784.0,-104453.25
7786.0,-104420.84999999999
7788.0,-104385.75
7790.0,-104363.95000000001
7792.0,-104350.90000000002
7794.0,-104332.90000000002
7796.0,-104310.90000000002
7798.0,-104292.05
7800.0,-104275.90000000001
7802.0,-104260.15000000001
7804.0,-104245.25
7806.0,-104228.35
7808.0,-104204.80000000002
7810.0,-104177.65
7812.0,-104157.35
7814.0,-104148.5
7816.0,-104141.6
7818.0,-104125.6
7820.0,-104104.1
7822.0,-104089.90000000001
7824.0,-104085.15
7826.0,-104078.89999999998
7828.0,-104062.65
7830.0,-104040.45000000001
7832.0,-104023.20000000003
7834.0,-104016.45000000001
7836.0,-104013.50000000001
7838.0,-104002.35
7840.0,-103981.1
7842.0,-103961.05000000002
7844.0,-103951.25000000001
7846.0,-103948.55
7848.0,-103945.55
7850.0,-103939.49999999999
7852.0,-103930.8
7853.98,-103921.84999999999
7855.95,-103917.50000000001
7857.93,-103918.1
7859.9,-103916.55000000002
7861.9,-103909.45000000003
7863.9,-103905.65000000002
7865.9,-103913.40000000001
7867.9,-103926.8
7869.9,-103933.75
7871.9,-103933.7
7873.9,-103938.8
7875.9,-103957.7
7877.9,-103984.59999999999
7879.9,-104005.74999999999
7881.9,-104015.2
7883.9,-104020.9
7885.9,-104033.40000000001
7887.9,-104051.85
7889.9,-104066.45000000001
7891.9,-104074.70000000003
7893.9,-104086.80000000002
7895.9,-104110.35000000002
7897.9,-104138.50000000001
7899.9,-104159.95000000001
7901.9,-104175.0
7903.9,-104192.5
7905.9,-104216.45
7907.9,-104242.35
7909.9,-104264.05
7911.9,-104278.65
7913.9,-104286.5
7915.9,-104291.8
7917.9,-104300.2
7919.9,-104312.7
7921.9,-104324.4
7923.9,-104332.85
7925.9,-104343.55
7927.9,-104361.84999999999
7929.9,-104383.75
7931.9,-104400.34999999999
7933.88,-104407.44999999998
7935.85,-104408.59999999998
7937.83,-104412.65
7939.8,-104426.05
7941.8,-104442.50000000001
7943.8,-104448.00000000001
7945.8,-104441.25
7947.8,-104437.1
7949.8,-104443.05
7951.8,-104447.50000000001
7953.8,-104440.15000000001
7955.8,-104428.6
7957.8,-104426.45
7959.8,-104436.15000000001
7961.8,-104447.65
7963.8,-104448.6
7965.8,-104437.10000000002
7967.8,-104425.80000000002
7969.8,-104425.40000000002
7971.8,-104428.65000000001
7973.8,-104424.25000000001
7975.8,-104416.7
7977.8,-104414.9
7979.8,-104414.80000000002
7981.8,-104409.35
7983.8,-104401.15000000001
7985.8,-104393.8
7987.8,-104386.95000000001
7989.8,-104384.3
7991.8,-104391.45000000001
7993.8,-104404.30000000002
7995.8,-104411.55
7997.8,-104408.45
7999.8,-104401.8
8001.8,-104402.35
8003.8,-104411.45
8005.8,-104418.5
8007.8,-104416.85
8009.8,-104416.99999999999
8011.8,-104431.45
8013.78,-104452.75000000001
8015.75,-104463.35
8017.73,-104461.60000000002
8019.7,-104462.75000000001
8021.7,-104477.5
8023.7,-104500.35
8025.7,-104517.70000000001
8027.7,-104523.55
8029.7,-104526.85000000002
8031.7,-104538.90000000002
8033.7,-104556.55
8035.7,-104569.20000000001
8037.7,-104577.15000000001
8039.7,-104589.70000000001
8041.7,-104609.00000000001
8043.7,-104629.60000000002
8045.7,-104646.90000000001
8047.7,-104658.80000000002
8049.7,-104666.40000000001
8051.7,-104675.20000000001
8053.7,-104688.75000000001
8055.7,-104702.95000000001
8057.7,-104712.25
8059.7,-104716.45
8061.7,-104719.25
8063.7,-104724.75000000001
8065.7,-104733.70000000001
8067.7,-104740.05000000002
8069.7,-104737.15000000001
8071.7,-104728.20000000003
8073.7,-104722.75000000001
8075.7,-104722.90000000001
8077.7,-104721.40000000001
8079.7,-104711.70000000001
8081.7,-104695.70000000001
8083.7,-104680.85
8085.7,-104671.1
8087.7,-104660.60000000002
8089.7,-104641.15000000002
8091.7,-104616.00000000003
8093.68,-104597.70000000003
8095.65,-104590.70000000001
8097.63,-104586.09999999999
8099.6,-104575.00000000001
8101.6,-104559.85
8103.6,-104550.35
8105.6,-104551.10000000002
8107.6,-104554.90000000002
8109.6,-104551.05000000003
8111.6,-104540.70000000001
8113.6,-104536.0
8115.6,-104542.5
8117.6,-104552.4
8119.6,-104557.0
8121.6,-104556.24999999999
8123.6,-104556.4
8125.6,-104563.50000000001
8127.6,-104577.6
8129.6,-104590.7
8131.6,-104595.59999999999
8133.6,-104594.29999999999
8135.6,-104593.84999999999
8137.6,-104596.9
8139.6,-104600.1
8141.6,-104597.5
8143.6,-104587.09999999999
8145.6,-104577.0
8147.6,-104577.35
8149.6,-104584.3
8151.6,-104582.6
8153.6,-104566.75
8155.6,-104547.6
8157.6,-104536.2
8159.6,-104530.25
8161.6,-104518.7
8163.6,-104496.05
8165.6,-104470.4
8167.6,-104454.2
8169.6,-104448.50000000001
8171.6,-104444.10000000002
8173.58,-104438.35
8175.55,-104438.35
8177.53,-104448.25
8179.5,-104464.70000000001
8181.5,-104482.9
8183.5,-104498.99999999999
8185.5,-104509.8
8187.5,-104517.04999999999
8189.5,-104526.3
8191.5,-104538.55
8193.5,-104548.45000000001
8195.5,-104553.65000000002
8197.5,-104559.8
8199.5,-104573.09999999999
8201.5,-104592.65
8203.5,-104611.44999999998
8205.5,-104623.5
8207.5,-104630.05
8209.5,-104638.45000000001
8211.5,-104651.70000000001
8213.5,-104660.7
8215.5,-104653.99999999999
8217.5,-104635.2
8219.5,-104622.0
8221.5,-104623.6
8223.5,-104626.3
8225.5,-104614.35
8227.5,-104598.3
8229.5,-104602.10000000002
8231.5,-104626.25
8233.5,-104651.7
8235.5,-104672.20000000001
8237.5,-104691.7
8239.5,-104705.65
8241.5,-104714.59999999999
8243.5,-104730.09999999999
8245.5,-104744.05
8247.5,-104728.35
8249.5,-104676.80000000002
8251.5,-104606.25000000001
8253.48,-104519.60000000002
8255.45,-104409.15000000001
8257.43,-104280.80000000002
8259.4,-104140.65000000002
8261.4,-103985.65000000001
8263.4,-103830.9
8265.4,-103708.05
8267.4,-103621.1
8269.4,-103547.1
8271.4,-103486.65000000001
8273.4,-103464.05
8275.4,-103476.95000000001
8277.4,-103496.25
8279.4,-103509.9
8281.4,-103523.75
8283.4,-103538.05
8285.4,-103558.20000000003
8287.4,-103599.25000000001
8289.4,-103659.75000000001
8291.4,-103728.90000000001
8293.4,-103819.40000000002
8295.4,-103948.65000000002
8297.4,-104101.30000000002
8299.4,-104252.35
8301.4,-104401.29999999999
8303.4,-104551.4
8305.4,-104686.20000000001
8307.4,-104790.10000000002
8309.4,-104863.10000000003
8311.4,-104904.40000000002
8313.4,-104908.25000000001
8315.4,-104882.35
8317.4,-104847.95000000001
8319.4,-104818.20000000001
8321.4,-104790.30000000002
8323.4,-104760.75000000001
8325.4,-104735.10000000002
8327.4,-104720.7
8329.4,-104717.0
8331.3,-104715.6
8333.3,-104707.79999999999
8335.3,-104693.59999999999
8337.3,-104682.34999999999
8339.3,-104680.45
8341.3,-104681.65
8343.3,-104676.45
8345.3,-104667.4
8347.3,-104665.59999999999
8349.3,-104673.35
8351.3,-104679.90000000002
8353.3,-104677.70000000003
8355.3,-104672.75000000001
8357.3,-104673.50000000003
8359.3,-104679.60000000002
8361.3,-104686.75000000003
8363.3,-104691.55000000002
8365.3,-104689.45000000001
8367.3,-104679.70000000001
8369.3,-104671.0
8371.3,-104670.8
8373.3,-104675.1
8375.3,-104677.30000000002
8377.3,-104677.30000000002
8379.3,-104676.95000000001
8381.3,-104676.45
8383.3,-104674.09999999999
8385.3,-104664.29999999999
8387.3,-104644.45
8389.3,-104625.65000000001
8391.3,-104621.94999999998
8393.3,-104628.65
8395.3,-104627.55
8397.3,-104613.2
8399.3,-104598.65
8401.3,-104596.04999999999
8403.28,-104601.85
8405.25,-104602.15000000001
8407.23,-104589.90000000001
8409.2,-104574.6
8411.2,-104569.1
8413.2,-104569.1
8415.2,-104559.2
8417.2,-104538.25
8419.2,-104520.8
8421.2,-104514.95
8423.2,-104515.95
8425.2,-104517.20000000001
8427.2,-104513.2
8429.2,-104500.25
8431.2,-104483.49999999999
8433.2,-104472.4
8435.2,-104465.75
8437.2,-104454.84999999999
8439.2,-104437.9
8441.2,-104419.25000000003
8443.2,-104402.25000000001
8445.2,-104390.8
8447.2,-104385.90000000002
8449.2,-104379.00000000001
8451.2,-104363.40000000001
8453.2,-104348.05
8455.2,-104343.90000000001
8457.2,-104344.05
8459.2,-104334.25
8461.2,-104314.40000000001
8463.2,-104296.05
8465.2,-104284.95
8467.2,-104276.55
8469.2,-104264.20000000001
8471.2,-104247.45000000001
8473.2,-104232.85
8475.2,-104226.25
8477.2,-104222.65
8479.2,-104211.05000000002
8481.2,-104191.34999999999
8483.18,-104176.90000000001
8485.15,-104174.8
8487.13,-104175.45000000001
8489.1,-104168.15000000001
8491.1,-104156.35
8493.1,-104149.95000000001
8495.1,-104150.40000000001
8497.1,-104150.90000000002
8499.1,-104146.85
8501.1,-104140.04999999999
8503.1,-104134.95
8505.1,-104134.65
8507.1,-104139.25
8509.1,-104145.00000000001
8511.1,-104145.65000000001
8513.1,-104140.1
8515.1,-104136.90000000002
8517.1,-104145.40000000001
8519.1,-104163.05
8521.1,-104177.75
8523.1,-104184.00000000001
8525.1,-104189.45000000001
8527.1,-104203.20000000001
8529.1,-104222.85
8531.1,-104237.25000000001
8533.1,-104241.35
8535.1,-104244.70000000001
8537.1,-104260.70000000003
8539.1,-104287.85
8541.1,-104310.90000000001
8543.1,-104322.25
8545.1,-104330.95
8547.1,-104346.95
8549.1,-104369.59999999999
8551.1,-104395.24999999999
8553.1,-104423.19999999998
8555.1,-104451.84999999999
8557.1,-104480.00000000001
8559.1,-104509.4
8561.1,-104539.95
8563.08,-104566.1
8565.05,-104585.59999999999
8567.03,-104605.04999999999
8569.0,-104631.15
8571.0,-104660.9
8573.0,-104685.3
8575.0,-104701.55000000002
8577.0,-104716.75000000003
8579.0,-104738.70000000003
8581.0,-104766.10000000002
8583.0,-104790.95000000001
8585.0,-104808.95000000001
8587.0,-104824.65000000002
8589.0,-104845.05000000002
8591.0,-104869.90000000001
8593.0,-104891.1
8595.0,-104902.75000000001
8597.0,-104908.00000000001
8599.0,-104914.8
8601.0,-104926.00000000001
8603.0,-104936.55000000002
8605.0,-104941.15000000002
8607.0,-104942.50000000003
8609.0,-104948.95000000001
8611.0,-104964.15
8613.0,-104981.34999999999
8615.0,-104989.8
8617.0,-104987.90000000001
8619.0,-104986.1
8621.0,-104993.2
8623.0,-105004.5
8625.0,-105010.5
8627.0,-105010.65
8629.0,-105011.5
8631.0,-105016.5
8633.0,-105023.05
8635.0,-105025.9
8637.0,-105024.05
8639.0,-105024.15000000001
8641.0,-105032.45
8642.98,-105045.6
8644.95,-105056.65000000001
8646.93,-105063.90000000001
8648.9,-105067.05000000002
8650.9,-105065.80000000002
8652.9,-105066.85000000002
8654.9,-105077.65000000002
8656.9,-105092.40000000001
8658.9,-105100.45000000001
8660.9,-105104.6
8662.9,-105115.15000000001
8664.9,-105132.95000000001
8666.9,-105149.65000000001
8668.9,-105158.99999999999
8670.9,-105163.8
8672.9,-105174.55
8674.9,-105195.8
8676.9,-105215.20000000001
8678.9,-105220.75
8680.9,-105221.0
8682.9,-105228.99999999999
8684.9,-105240.5
8686.9,-105247.15
8688.9,-105252.04999999999
8690.9,-105258.79999999999
8692.9,-105266.3
8694.9,-105275.90000000001
8696.9,-105282.90000000001
8698.9,-105274.55
8700.9,-105256.2
8702.9,-105252.55
8704.9,-105268.2
8706.9,-105282.25
8708.9,-105285.15
8710.9,-105286.0
8712.9,-105288.2
8714.9,-105290.59999999999
8716.9,-105298.05
8718.9,-105307.90000000001
8720.9,-105308.60000000002
8722.88,-105303.55
8724.85,-105307.75000000001
8726.83,-105319.85000000002
8728.8,-105326.65000000001
8730.8,-105327.55
8732.8,-105328.75000000001
8734.8,-105330.80000000002
8736.8,-105338.75000000003
8738.8,-105358.15000000002
8740.8,-105375.15000000001
8742.8,-105374.20000000001
8744.8,-105367.45000000001
8746.8,-105372.95
8748.8,-105385.8
8750.8,-105395.79999999999
8752.8,-105404.09999999999
8754.8,-105410.4
8756.8,-105415.44999999998
8758.8,-105429.04999999999
8760.8,-105448.7
8762.8,-105455.35
8764.8,-105448.30000000002
8766.8,-105448.90000000001
8768.8,-105463.00000000001
8770.8,-105476.65000000001
8772.8,-105483.85
8774.8,-105486.65000000001
8776.8,-105483.40000000001
8778.8,-105480.10000000002
8780.8,-105490.85000000002
8782.8,-105510.20000000001
8784.8,-105513.19999999998
8786.8,-105494.05
8788.8,-105473.7
8790.8,-105463.65
8792.8,-105454.95000000001
8794.8,-105443.24999999999
8796.8,-105433.34999999999
8798.8,-105425.05
8800.8,-105419.35
8802.78,-105422.45
8804.75,-105428.65
8806.73,-105424.84999999999
8808.7,-105418.25
8810.7,-105427.85
8812.7,-105451.40000000002
8814.7,-105471.25000000001
8816.7,-105484.20000000001
8818.7,-105498.85
8820.7,-105514.29999999999
8822.7,-105523.5
8824.7,-105529.99999999999
8826.7,-105544.15
8828.7,-105565.65
8830.7,-105585.19999999998
8832.7,-105602.05
8834.7,-105623.90000000001
8836.7,-105649.05
8838.7,-105667.40000000001
8840.7,-105679.25
8842.7,-105696.0
8844.7,-105720.40000000001
8846.7,-105740.7
8848.7,-105745.84999999999
8850.7,-105738.1
8852.7,-105729.79999999999
8854.7,-105730.50000000001
8856.7,-105737.75000000003
8858.7,-105742.60000000002
8860.7,-105745.3
8862.7,-105758.80000000002
8864.7,-105789.95000000001
8866.7,-105824.8
8868.7,-105845.25000000001
8870.7,-105853.15000000004
8872.7,-105864.05000000002
8874.7,-105882.10000000002
8876.7,-105895.70000000001
8878.7,-105892.35
8880.7,-105866.80000000002
8882.68,-105818.50000000001
8884.65,-105750.05000000002
8886.63,-105663.80000000002
8888.6,-105557.45000000001
8890.6,-105428.65000000001
8892.6,-105283.70000000001
8894.6,-105136.55000000002
8896.6,-105000.70000000001
8898.6,-104886.5
8900.6,-104800.55
8902.6,-104744.7
8904.6,-104719.75000000001
8906.6,-104728.25000000001
8908.6,-104764.95000000001
8910.6,-104808.85
8912.6,-104837.0
8914.6,-104847.90000000001
8916.6,-104861.54999999999
8918.6,-104894.79999999999
8920.6,-104944.34999999999
8922.6,-105000.5
8924.6,-105068.9
8926.6,-105165.2
8928.6,-105291.34999999999
8930.6,-105432.54999999999
8932.6,-105576.9
8934.6,-105723.15
8936.6,-105868.45
8938.6,-105998.34999999999
8940.6,-106092.8
8942.6,-106140.25
8944.6,-106146.65
8946.6,-106127.75
8948.6,-106095.05000000002
8950.6,-106054.85000000002
8952.6,-106015.15000000001
8954.6,-105983.8
8956.6,-105962.79999999999
8958.6,-105950.24999999999
8960.6,-105943.9
8962.58,-105940.09999999999
8964.55,-105935.05000000002
8966.53,-105930.60000000002
8968.5,-105933.75
8970.5,-105946.00000000001
8972.5,-105958.55000000002
8974.5,-105962.50000000001
8976.5,-105958.95
8978.5,-105956.35
8980.5,-105960.84999999999
8982.5,-105969.75000000001
8984.5,-105973.20000000001
8986.5,-105967.90000000001
8988.5,-105965.6
8990.5,-105976.45
8992.5,-105991.35
8994.5,-105995.84999999999
8996.5,-105992.30000000002
8998.5,-105993.90000000002
9000.5,-106006.40000000002
9002.5,-106023.95000000003
9004.5,-106036.10000000002
9006.5,-106036.00000000001
9008.5,-106028.25000000001
9010.5,-106025.3
9012.5,-106030.8
9014.5,-106035.55000000002
9016.5,-106034.55
9018.5,-106034.7
9020.5,-106040.90000000001
9022.5,-106049.25000000001
9024.5,-106056.75000000001
9026.5,-106063.85
9028.5,-106067.74999999999
9030.5,-106069.20000000001
9032.5,-106077.55
9034.5,-106092.70000000001
9036.5,-106097.55000000002
9038.5,-106084.40000000001
9040.5,-106067.70000000001
9042.48,-106058.84999999999
9044.45,-106051.6
9046.43,-106039.95000000001
9048.4,-106025.90000000001
9050.4,-106010.80000000002
9052.4,-105997.8
9054.4,-105992.8
9056.4,-105989.55
9058.4,-105973.5
9060.4,-105947.45
9062.4,-105928.75
9064.4,-105919.15000000002
9066.4,-105902.45000000003
9068.4,-105872.30000000002
9070.4,-105839.35000000002
9072.4,-105813.75000000003
9074.4,-105795.85
9076.4,-105780.79999999999
9078.4,-105764.1
9080.4,-105746.55
9082.4,-105735.15
9084.4,-105733.55
9086.4,-105734.3
9088.4,-105727.05000000002
9090.4,-105710.30000000002
9092.4,-105690.85
9094.4,-105675.59999999999
9096.4,-105665.79999999999
9098.4,-105656.09999999999
9100.4,-105641.59999999999
9102.4,-105625.25
9104.4,-105613.95000000001
9106.4,-105609.45000000001
9108.4,-105607.20000000001
9110.4,-105600.90000000002
9112.4,-105587.90000000002
9114.4,-105574.35000000002
9116.4,-105569.25000000001
9118.4,-105568.55000000003
9120.4,-105558.35000000002
9122.38,-105537.65000000001
9124.35,-105522.25000000001
9126.33,-105522.15000000001
9128.3,-105529.0
9130.3,-105529.75
9132.3,-105523.2
9134.3,-105519.55
9136.3,-105526.65
9138.3,-105539.25000000001
9140.3,-105545.90000000001
9142.3,-105545.15000000001
9144.3,-105547.45
9146.3,-105559.95000000001
9148.3,-105577.95000000001
9150.3,-105592.65000000002
9152.3,-105601.7
9154.3,-105609.70000000001
9156.3,-105621.55
9158.3,-105637.5
9160.3,-105654.75
9162.3,-105671.3
9164.3,-105685.85000000002
9166.3,-105697.25000000001
9168.3,-105709.20000000001
9170.3,-105728.65000000001
9172.3,-105754.05000000003
9174.3,-105774.65000000002
9176.3,-105788.45000000001
9178.3,-105809.05000000002
9180.3,-105844.10000000002
9182.3,-105881.00000000001
9184.3,-105905.85
9186.3,-105924.60000000002
9188.3,-105952.40000000001
9190.3,-105991.20000000001
9192.3,-106029.30000000003
9194.3,-106059.1
9196.3,-106085.45000000001
9198.3,-106117.6
9200.3,-106156.1
9202.28,-106191.70000000001
9204.25,-106217.8
9206.23,-106240.35000000002
9208.2,-106269.60000000002
9210.2,-106305.90000000001
9212.2,-106339.45
9214.2,-106363.34999999999
9216.2,-106381.65000000001
9218.2,-106402.05
9220.2,-106425.00000000001
9222.2,-106444.55000000002
9224.2,-106457.30000000002
9226.2,-106465.85
9228.2,-106474.65000000001
9230.2,-106487.25
9232.2,-106503.90000000001
9234.2,-106519.5
9236.2,-106528.45
9238.2,-106532.7
9240.2,-106541.85
9242.2,-106561.6
9244.2,-106583.70000000003
9246.2,-106593.80000000002
9248.2,-106591.90000000001
9250.2,-106592.35
9252.2,-106601.25
9254.2,-106612.1
9256.2,-106621.25000000001
9258.2,-106626.70000000001
9260.2,-106622.40000000001
9262.2,-106614.05
9264.2,-106618.7
9266.2,-106633.15000000001
9268.2,-106637.10000000002
9270.2,-106630.95000000003
9272.2,-106632.40000000002
9274.2,-106641.50000000003
9276.2,-106646.30000000002
9278.2,-106647.15000000001
9280.2,-106646.95000000001
9282.18,-106641.85
9284.15,-106638.65000000001
9286.13,-106650.95
9288.1,-106671.25
9290.1,-106679.65000000001
9292.1,-106677.95000000003
9294.1,-106682.20000000003
9296.1,-106692.30000000003
9298.1,-106699.45000000003
9300.1,-106706.85000000002
9302.1,-106718.20000000001
9304.1,-106727.85
9306.1,-106736.05000000002
9308.1,-106746.70000000001
9310.1,-106752.8
9312.1,-106751.34999999999
9314.1,-106758.29999999999
9316.1,-106783.65000000001
9318.1,-106813.90000000001
9320.1,-106834.70000000001
9322.1,-106847.25000000001
9324.1,-106858.99999999999
9326.1,-106875.9
9328.1,-106898.54999999999
9330.1,-106918.6
9332.1,-106929.75
9334.1,-106937.95000000001
9336.1,-106950.85000000002
9338.1,-106968.70000000001
9340.1,-106989.35000000002
9342.1,-107008.75
9344.1,-107020.05000000002
9346.1,-107025.30000000002
9348.1,-107037.8
9350.1,-107061.45000000001
9352.1,-107082.1
9354.1,-107086.05
9356.1,-107076.05000000002
9358.1,-107064.75000000001
9360.1,-107060.6
9362.08,-107061.25
9364.05,-107056.79999999999
9366.03,-107042.25000000001
9368.0,-107026.95000000001
9370.0,-107024.5
9372.0,-107031.95
9374.0,-107032.00000000001
9376.0,-107019.05
9378.0,-107008.5
9380.0,-107013.50000000001
9382.0,-107025.70000000001
9384.0,-107029.15
9386.0,-107021.25
9388.0,-107009.90000000001
9390.0,-107000.15000000001
9392.0,-106992.5
9394.0,-106987.35
9396.0,-106983.35000000002
9398.0,-106978.45000000001
9400.0,-106976.10000000002
9402.0,-106981.15000000002
9404.0,-106988.05000000002
9406.0,-106985.1
9408.0,-106971.5
9410.0,-106957.3
9412.0,-106948.54999999999
9414.0,-106943.25
9416.0,-106936.95
9418.0,-106923.65000000001
9420.0,-106902.25000000001
9422.0,-106885.95
9424.0,-106888.15
9426.0,-106901.2
9428.0,-106908.69999999998
9430.0,-106912.39999999998
9432.0,-106926.19999999998
9434.0,-106950.84999999999
9436.0,-106972.90000000001
9438.0,-106982.54999999999
9440.0,-106983.45
9441.98,-106988.70000000001
9443.95,-107007.5
9445.93,-107033.90000000001
9447.9,-107055.50000000001
9449.9,-107073.55
9451.9,-107101.30000000002
9453.9,-107141.05000000002
9455.9,-107177.15000000001
9457.9,-107197.95000000001
9459.9,-107209.90000000002
9461.9,-107223.40000000001
9463.9,-107238.2
9465.9,-107249.79999999999
9467.9,-107258.04999999999
9469.9,-107263.1
9471.9,-107264.35
9473.9,-107266.20000000001
9475.9,-107274.20000000001
9477.9,-107285.6
9479.9,-107292.75000000001
9481.9,-107293.6
9483.9,-107294.80000000002
9485.9,-107304.40000000001
9487.9,-107321.35
9489.9,-107333.60000000002
9491.9,-107332.50000000001
9493.9,-107325.55000000003
9495.9,-107324.95000000001
9497.9,-107326.00000000001
9499.9,-107310.20000000001
9501.9,-107268.25000000001
9503.9,-107207.55000000002
9505.9,-107134.55
9507.9,-107042.15000000001
9509.9,-106920.50000000001
9511.9,-106772.75
9513.9,-106614.75
9515.9,-106463.74999999999
9517.9,-106330.34999999999
9519.9,-106217.84999999999
9521.88,-106128.49999999999
9523.85,-106068.95
9525.83,-106046.1
9527.8,-106056.00000000001
9529.8,-106081.60000000002
9531.8,-106106.35000000002
9533.8,-106127.00000000001
9535.8,-106150.05000000002
9537.8,-106179.85000000002
9539.8,-106216.1
9541.8,-106259.70000000001
9543.8,-106313.95000000001
9545.8,-106385.0
9547.8,-106482.50000000001
9549.8,-106610.20000000001
9551.8,-106755.85000000002
9553.8,-106903.40000000002
9555.8,-107049.50000000001
9557.8,-107194.65000000001
9559.8,-107325.55
9561.8,-107422.25000000001
9563.8,-107476.25000000001
9565.8,-107492.85000000002
9567.8,-107483.90000000001
9569.8,-107462.05
9571.8,-107433.05
9573.8,-107396.00000000001
9575.8,-107357.45
9577.8,-107333.45
9579.8,-107328.70000000001
9581.8,-107328.05
9583.8,-107318.8
9585.8,-107307.25
9587.8,-107303.95
9589.8,-107307.05
9591.8,-107307.45
9593.8,-107299.79999999999
9595.8,-107285.55
9597.8,-107270.0
9599.8,-107256.80000000002
9601.78,-107244.00000000001
9603.75,-107227.55000000002
9605.73,-107207.10000000002
9607.7,-107186.70000000001
9609.7,-107172.45000000003
9611.7,-107168.45000000003
9613.7,-107170.55000000002
9615.7,-107167.95
9617.7,-107156.0
9619.7,-107142.35
9621.7,-107136.2
9623.7,-107136.65
9625.7,-107134.50000000001
9627.7,-107124.35000000002
9629.7,-107112.00000000001
9631.7,-107107.60000000002
9633.7,-107110.10000000002
9635.7,-107107.1
9637.7,-107094.45000000001
9639.7,-107084.65000000001
9641.7,-107086.75000000001
9643.7,-107090.65000000002
9645.7,-107082.80000000002
9647.7,-107066.75000000001
9649.7,-107055.70000000001
9651.7,-107052.85
9653.7,-107050.40000000002
9655.7,-107043.60000000002
9657.7,-107035.35
9659.7,-107028.85
9661.7,-107024.15000000001
9663.7,-107020.70000000001
9665.7,-107016.25000000001
9667.7,-107006.70000000001
9669.7,-106993.45000000001
9671.7,-106983.70000000001
9673.7,-106979.1
9675.7,-106973.5
9677.7,-106963.5
9679.7,-106951.0
9681.68,-106937.85
9683.65,-106926.35
9685.63,-106916.9
9687.6,-106900.7
9689.6,-106868.65
9691.6,-106829.15
9693.6,-106799.95
9695.6,-106782.49999999999
9697.6,-106761.84999999999
9699.6,-106730.15
9701.6,-106695.70000000001
9703.6,-106670.10000000002
9705.6,-106654.60000000002
9707.6,-106637.84999999999
9709.6,-106606.69999999998
9711.6,-106562.54999999999
9713.6,-106521.65
9715.6,-106493.15
9717.6,-106466.7
9719.6,-106430.0
9721.6,-106387.90000000001
9723.6,-106355.20000000003
9725.6,-106338.10000000003
9727.6,-106329.85000000003
9729.6,-106320.20000000003
9731.6,-106305.45000000003
9733.6,-106289.45000000001
9735.6,-106275.45
9737.6,-106261.24999999999
9739.6,-106244.65
9741.6,-106225.6
9743.6,-106202.50000000001
9745.6,-106177.20000000001
9747.6,-106158.40000000001
9749.6,-106148.05000000002
9751.6,-106135.90000000002
9753.6,-106118.8
9755.6,-106106.55
9757.6,-106102.70000000001
9759.6,-106101.29999999999
9761.58,-106100.25
9763.55,-106096.4
9765.53,-106082.95
9767.5,-106067.1
9769.5,-106064.40000000001
9771.5,-106068.45000000001
9773.5,-106061.70000000001
9775.5,-106051.45000000001
9777.5,-106057.7
9779.5,-106077.55
9781.5,-106095.35
9783.5,-106108.55000000002
9785.5,-106119.40000000001
9787.5,-106126.30000000002
9789.5,-106136.90000000001
9791.5,-106161.8
9793.5,-106190.25000000001
9795.5,-106202.45000000001
9797.5,-106203.70000000003
9799.5,-106214.65000000002
9801.5,-106236.45000000003
9803.5,-106256.20000000001
9805.5,-106273.0
9807.5,-106290.95000000001
9809.5,-106305.84999999999
9811.5,-106318.65
9813.5,-106337.35
9815.5,-106355.90000000002
9817.5,-106360.90000000002
9819.5,-106357.55000000002
9821.5,-106361.25000000001
9823.5,-106371.70000000001
9825.5,-106379.30000000002
9827.5,-106384.25000000001
9829.5,-106392.20000000001
9831.5,-106402.85
9833.5,-106413.30000000002
9835.5,-106422.95
9837.5,-106430.8
9839.5,-106435.20000000001
9841.48,-106437.8
9843.45,-106442.35
9845.43,-106448.35
9847.4,-106451.09999999999
9849.4,-106450.15
9851.4,-106451.5
9853.4,-106457.84999999999
9855.4,-106464.65
9857.4,-106468.25
9859.4,-106470.45
9861.4,-106472.50000000001
9863.4,-106473.90000000001
9865.4,-106477.90000000001
9867.4,-106486.70000000001
9869.4,-106492.25
9871.4,-106486.40000000001
9873.4,-106477.70000000003
9875.4,-106480.50000000001
9877.4,-106490.50000000001
9879.4,-106491.80000000002
9881.4,-106483.80000000002
9883.4,-106480.6
9885.4,-106488.05000000002
9887.4,-106499.05
9889.4,-106506.25000000001
9891.4,-106507.50000000001
9893.4,-106506.8
9895.4,-106512.7
9897.4,-106526.05
9899.4,-106533.5
9901.4,-106527.0
9903.4,-106518.05
9905.4,-106518.65000000001
9907.4,-106523.25
9909.4,-106522.2
9911.4,-106515.8
9913.4,-106507.2
9915.4,-106497.3
9917.4,-106489.45000000001
9919.4,-106485.65
9921.38,-106480.35
9923.35,-106469.10000000002
9925.33,-106456.4
9927.3,-106448.15
9929.3,-106442.45000000001
9931.3,-106433.4
9933.3,-106418.84999999999
9935.3,-106402.65
9937.3,-106390.75
9939.3,-106386.55
9941.3,-106386.15000000001
9943.3,-106380.95000000001
9945.3,-106369.3
9947.3,-106361.75
9949.3,-106365.35
9951.3,-106369.75
9953.3,-106361.6
9955.3,-106347.50000000001
9957.3,-106345.05000000003
9959.3,-106356.05000000002
9961.3,-106365.75000000003
9963.3,-106365.75000000003
9965.3,-106362.85
9967.3,-106365.70000000001
9969.3,-106374.50000000001
9971.3,-106384.35
9973.3,-106390.55000000002
9975.3,-106390.55
9977.3,-106387.09999999999
9979.3,-106386.79999999999
9981.3,-106391.99999999999
9983.3,-106397.04999999999
9985.3,-106396.15000000001
9987.3,-106390.45000000001
9989.3,-106386.45000000001
9991.3,-106388.85
9993.3,-106395.3
9995.3,-106398.2
9997.3,-106393.85
9999.3,-106386.50000000001
10001.28,-106382.29999999999
10003.25,-106379.99999999999
10005.22,-106370.99999999999
10007.2,-106350.70000000001
10009.2,-106328.05
10011.2,-106314.55
10013.2,-106305.8
10015.2,-106288.5
10017.2,-106262.35
10019.2,-106237.59999999999
10021.2,-106216.45
10023.2,-106192.70000000001
10025.2,-106162.0
10027.2,-106124.95
10029.2,-106088.4
10031.2,-106062.89999999998
10033.2,-106047.95
10035.2,-106029.6
10037.2,-106002.65000000001
10039.2,-105980.65000000002
10041.2,-105973.70000000001
10043.2,-105974.5
10045.2,-105973.8
10047.2,-105972.3
10049.2,-105972.45000000003
10051.2,-105973.40000000001
10053.2,-105975.55
10055.2,-105979.70000000001
10057.2,-105983.59999999999
10059.2,-105986.40000000001
10061.2,-105992.15
10063.2,-106005.59999999999
10065.2,-106027.45
10067.2,-106052.1
10069.2,-106071.00000000001
10071.2,-106083.80000000002
10073.2,-106101.20000000001
10075.2,-106126.5
10077.2,-106145.4
10079.2,-106146.2
10081.17,-106138.24999999999
10083.15,-106138.45
10085.13,-106148.40000000001
10087.1,-106155.6
10089.1,-106151.05
10091.1,-106140.95
10093.1,-106140.55
10095.1,-106155.45
10097.1,-106174.1
10099.1,-106184.59999999999
10101.1,-106190.35
10103.1,-106200.70000000001
10105.1,-106215.9
10107.1,-106229.45000000001
10109.1,-106235.20000000003
10111.1,-106227.40000000001
10113.1,-106202.65000000002
10115.1,-106162.45000000001
10117.1,-106105.25
10119.1,-106021.75
10121.1,-105906.65
10123.1,-105767.25
10125.1,-105616.05
10127.1,-105460.45000000001
10129.1,-105303.00000000003
10131.1,-105147.50000000003
10133.1,-105005.60000000002
10135.1,-104895.15000000001
10137.1,-104825.0
10139.1,-104786.25
10141.1,-104765.0
10143.1,-104755.75
10145.1,-104755.2
10147.1,-104755.5
10149.1,-104752.65
10151.1,-104751.4
10153.1,-104758.75
10155.1,-104782.75
10157.1,-104833.85
10159.1,-104914.15000000002
10161.08,-105011.50000000001
10163.05,-105117.65000000001
10165.03,-105240.5
10167.0,-105385.25
10169.0,-105537.25000000001
10171.0,-105675.40000000001
10173.0,-105787.75000000003
10175.0,-105868.35000000002
10177.0,-105916.30000000002
10179.0,-105937.95000000003
10181.0,-105938.35000000002
10183.0,-105917.20000000001
10185.0,-105882.90000000001
10187.0,-105854.45000000001
10189.0,-105840.05000000002
10191.0,-105830.55
10193.0,-105818.65
10195.0,-105806.7
10197.0,-105797.45
10199.0,-105792.45000000001
10201.0,-105793.90000000002
10203.0,-105796.75000000003
10205.0,-105791.05
10207.0,-105780.15000000001
10209.0,-105779.5
10211.0,-105790.5
10213.0,-105795.45000000001
10215.0,-105785.15000000001
10217.0,-105771.05000000002
10219.0,-105765.90000000001
10221.0,-105767.20000000001
10223.0,-105763.85
10225.0,-105748.8
10227.0,-105725.25
10229.0,-105704.45000000001
10231.0,-105693.6
10233.0,-105685.9
10235.0,-105670.90000000001
10237.0,-105651.05000000002
10239.0,-105637.0
10240.97,-105630.04999999999
10242.95,-105621.0
10244.92,-105604.0
10246.9,-105581.3
10248.9,-105557.45
10250.9,-105538.0
10252.9,-105526.55000000002
10254.9,-105515.10000000002
10256.9,-105491.55000000002
10258.9,-105461.15000000001
10260.9,-105440.7
10262.9,-105432.3
10264.9,-105427.05
10266.9,-105423.85
10268.9,-105419.8
10270.9,-105405.9
10272.9,-105390.34999999998
10274.9,-105389.65
10276.9,-105390.7
10278.9,-105369.1
10280.9,-105338.05
10282.9,-105327.2
10284.9,-105331.35
10286.9,-105327.3
10288.9,-105313.2
10290.9,-105296.45000000001
10292.9,-105276.65000000001
10294.9,-105261.25
10296.9,-105259.75
10298.9,-105257.8
10300.9,-105237.00000000001
10302.9,-105209.50000000001
10304.9,-105194.1
10306.9,-105180.7
10308.9,-105155.40000000001
10310.9,-105128.2
10312.9,-105107.95000000001
10314.9,-105087.45000000001
10316.9,-105068.25000000001
10318.9,-105058.5
10320.88,-105046.95
10322.85,-105019.6
10324.83,-104988.25
10326.8,-104967.8
10328.8,-104949.65000000001
10330.8,-104921.1
10332.8,-104886.35000000002
10334.8,-104853.85000000002
10336.8,-104825.00000000001
10338.8,-104799.70000000001
10340.8,-104776.95
10342.8,-104751.6
10344.8,-104721.35
10346.8,-104693.1
10348.8,-104673.85
10350.8,-104657.70000000001
10352.8,-104631.85000000002
10354.8,-104596.30000000002
10356.8,-104565.6
10358.8,-104547.75000000001
10360.8,-104534.70000000001
10362.8,-104517.15000000001
10364.8,-104496.15000000001
10366.8,-104477.95000000001
10368.8,-104467.35
10370.8,-104464.75
10372.8,-104464.15
10374.8,-104458.74999999999
10376.8,-104450.79999999999
10378.8,-104447.9
10380.8,-104451.7
10382.8,-104457.3
10384.8,-104460.00000000001
10386.8,-104458.55000000002
10388.8,-104457.25000000001
10390.8,-104464.55000000002
10392.8,-104481.15000000001
10394.8,-104496.20000000001
10396.8,-104502.75000000001
10398.8,-104509.15
10400.78,-104525.85
10402.75,-104549.55
10404.72,-104567.85000000002
10406.7,-104575.55000000002
10408.7,-104581.55
10410.7,-104598.8
10412.7,-104627.84999999999
10414.7,-104655.55
10416.7,-104672.65
10418.7,-104685.15
10420.7,-104703.7
10422.7,-104730.25000000001
10424.7,-104759.85
10426.7,-104788.20000000001
10428.7,-104814.05
10430.7,-104839.3
10432.7,-104867.20000000001
10434.7,-104895.80000000002
10436.7,-104917.75
10438.7,-104929.35
10440.7,-104935.85
10442.7,-104945.75
10444.7,-104961.7
10446.7,-104977.0
10448.7,-104982.55
10450.7,-104979.6
10452.7,-104979.95000000001
10454.7,-104989.15000000001
10456.7,-104998.1
10458.7,-104996.95000000001
10460.7,-104987.7
10462.7,-104979.65000000001
10464.7,-104978.35
10466.7,-104979.25
10468.7,-104971.64999999998
10470.7,-104953.69999999998
10472.7,-104938.15
10474.7,-104934.54999999999
10476.7,-104934.9
10478.7,-104928.85
10480.67,-104919.90000000001
10482.65,-104915.2
10484.63,-104914.59999999999
10486.6,-104916.7
10488.6,-104921.2
10490.6,-104924.7
10492.6,-104925.7
10494.6,-104928.85000000002
10496.6,-104936.20000000001
10498.6,-104942.90000000002
10500.6,-104945.35
10502.6,-104944.45
10504.6,-104942.6
10506.6,-104943.95000000001
10508.6,-104950.65000000001
10510.6,-104955.75
10512.6,-104951.65
10514.6,-104944.05
